1572535733.2186713,109194,154836,5075
1572535733.2266033,109190,154820,5107
1572535733.234988,109210,154852,5076
1572535733.243115,109225,154809,5095
1572535733.251415,109226,154785,5096
1572535733.2594364,109220,154830,5107
1572535733.2634754,109207,154820,5096
1572535733.2714956,109184,154842,5107
1572535733.2795172,109214,154817,5080
1572535733.2875376,109187,154832,5091
1572535733.2962499,109239,154779,5101
1572535733.3044477,109143,154732,5092
1572535733.3086941,109195,154778,5062
1572535733.3166938,109155,154762,5088
1572535733.3246696,109175,154688,5066
1572535733.3326762,109171,154743,5088
1572535733.3413553,109177,154720,5125
1572535733.3495178,109108,154726,5101
1572535733.3535993,109188,154740,5086
1572535733.3617675,109150,154732,5072
1572535733.3700016,109177,154681,5062
1572535733.378149,109143,154688,5063
1572535733.3864522,109173,154716,5098
1572535733.3945231,109134,154731,5082
1572535733.3989074,109164,154769,5089
1572535733.4069037,109166,154789,5092
1572535733.4151201,109193,154809,5059
1572535733.4229827,109177,154752,5058
1572535733.431154,109161,154841,5088
1572535733.439515,109183,154805,5087
1572535733.4434266,109164,154836,5089
1572535733.4514127,109167,154820,5106
1572535733.4602013,109205,154867,5099
1572535733.468293,109223,154856,5088
1572535733.4764977,109182,154851,5113
1572535733.484375,109160,154846,5102
1572535733.4887974,109175,154895,5074
1572535733.496971,109217,154893,5111
1572535733.5046911,109210,154914,5089
1572535733.513344,109145,154901,5097
1572535733.5215697,109187,154908,5091
1572535733.5297582,109212,154932,5090
1572535733.5332215,109185,154903,5151
1572535733.5456212,109240,154915,5094
1572535733.54954,109207,154896,5113
1572535733.557749,109178,154892,5108
1572535733.566178,109200,154917,5094
1572535733.5746245,109188,154914,5130
1572535733.5786414,109199,154951,5122
1572535733.5907574,109235,154932,5076
1572535733.5948584,109173,154934,5102
1572535733.6034672,109213,154920,5119
1572535733.6116657,109185,154956,5093
1572535733.619869,109145,154960,5112
1572535733.6238668,109149,154955,5096
1572535733.636242,109173,154894,5079
1572535733.6401243,109193,154935,5104
1572535733.6485405,109167,154894,5128
1572535733.6563094,109132,154877,5103
1572535733.66486,109212,154958,5105
1572535733.6690147,109171,154944,5106
1572535733.681279,109180,154933,5103
1572535733.685438,109150,154896,5123
1572535733.6935773,109180,154971,5140
1572535733.7018309,109209,154947,5112
1572535733.7099648,109195,154970,5099
1572535733.7182174,109183,154962,5114
1572535733.7258637,109189,154980,5067
1572535733.7304764,109202,154955,5094
1572535733.7386367,109201,154970,5140
1572535733.7467968,109179,154957,5117
1572535733.755246,109184,154964,5070
1572535733.7631552,109203,154935,5101
1572535733.7714353,109151,154894,5097
1572535733.7795095,109144,154893,5076
1572535733.7836854,109121,154777,5126
1572535733.7918694,109095,154754,5097
1572535733.800085,109081,154726,5067
1572535733.8082025,109119,154696,5104
1572535733.816412,109085,154653,5134
1572535733.8247347,109015,154593,5131
1572535733.8287587,109061,154628,5089
1572535733.8362892,109044,154623,5087
1572535733.8448625,109078,154623,5120
1572535733.8532765,109037,154576,5133
1572535733.8615122,109066,154606,5117
1572535733.8696692,109012,154631,5106
1572535733.8736732,109076,154598,5093
1572535733.881951,109042,154647,5085
1572535733.8898485,109073,154695,5134
1572535733.8982308,109086,154707,5065
1572535733.9064264,109061,154670,5087
1572535733.9147546,109126,154687,5118
1572535733.918855,109086,154737,5105
1572535733.9270287,109119,154749,5104
1572535733.9353147,109100,154805,5106
1572535733.9429789,109103,154811,5063
1572535733.9516287,109099,154828,5095
1572535733.959259,109140,154795,5095
1572535733.9639282,109069,154773,5092
1572535733.9721782,109083,154842,5091
1572535733.9803452,109083,154826,5073
1572535733.9885056,109115,154751,5097
1572535733.996702,109096,154831,5085
1572535734.0048764,109108,154807,5076
1572535734.0089765,109059,154792,5097
1572535734.017151,109131,154854,5094
1572535734.02535,109088,154835,5084
1572535734.0335238,109098,154786,5084
1572535734.0417247,109073,154741,5115
1572535734.0499249,109081,154816,5141
1572535734.0540307,109060,154753,5092
1572535734.0622244,109067,154783,5104
1572535734.0703564,109061,154769,5098
1572535734.0786383,109081,154775,5092
1572535734.086812,109069,154724,5078
1572535734.0950384,109045,154787,5115
1572535734.0991383,109072,154733,5103
1572535734.1072414,109065,154761,5057
1572535734.1154573,109107,154733,5106
1572535734.12379,109069,154740,5073
1572535734.1311738,109064,154758,5093
1572535734.1400084,109061,154724,5104
1572535734.1443908,109040,154783,5098
1572535734.1523628,109029,154790,5101
1572535734.1605077,109038,154793,5088
1572535734.1687007,109071,154802,5119
1572535734.1768303,108992,154754,5115
1572535734.185094,109055,154795,5082
1572535734.189194,109037,154861,5080
1572535734.197435,109078,154844,5134
1572535734.2054987,109112,154842,5111
1572535734.2138226,109087,154846,5114
1572535734.2215924,109064,154860,5117
1572535734.2298265,109088,154803,5094
1572535734.238314,109048,154870,5101
1572535734.242442,109091,154887,5134
1572535734.2538908,109103,154916,5083
1572535734.25903,109081,154912,5118
1572535734.2662182,109117,154960,5151
1572535734.2755468,109067,154887,5101
1572535734.2833886,109048,154951,5116
1572535734.2874906,109040,154942,5091
1572535734.2991767,109078,154878,5092
1572535734.3041902,109088,154938,5105
1572535734.3122456,109082,154874,5109
1572535734.3203611,109037,154886,5120
1572535734.3283384,109105,154968,5131
1572535734.3323205,109063,154924,5101
1572535734.3447926,109082,154910,5101
1572535734.3489184,109064,154871,5118
1572535734.3571782,109069,154959,5099
1572535734.365312,109078,154919,5105
1572535734.3736691,109079,154937,5105
1572535734.3776798,109073,154940,5120
1572535734.3894706,109071,154944,5125
1572535734.3939638,109066,154919,5097
1572535734.4021344,109074,154909,5133
1572535734.4103804,109086,154922,5122
1572535734.41856,109074,154958,5094
1572535734.422631,109077,154942,5136
1572535734.434934,109079,154954,5117
1572535734.4389782,109053,154975,5083
1572535734.447055,109073,154952,5127
1572535734.4554334,109049,154958,5132
1572535734.4636085,109079,154992,5095
1572535734.4676902,109076,155008,5132
1572535734.4800196,109079,154983,5135
1572535734.4841075,109037,154965,5097
1572535734.4922807,109020,154977,5122
1572535734.5004003,109058,154966,5126
1572535734.5082655,109015,154912,5119
1572535734.5127811,109018,154872,5134
1572535734.5243454,109011,154852,5147
1572535734.5287066,108987,154760,5118
1572535734.5370736,109007,154703,5118
1572535734.5454915,108964,154618,5098
1572535734.5531948,108958,154684,5110
1572535734.5621474,108963,154637,5064
1572535734.5701041,108954,154629,5108
1572535734.5737045,108995,154593,5117
1572535734.5817735,108932,154601,5081
1572535734.5904741,108961,154628,5102
1572535734.5985484,108888,154658,5099
1572535734.606619,108946,154635,5098
1572535734.6151776,108949,154669,5088
1572535734.6191049,109005,154659,5123
1572535734.6268744,108926,154698,5088
1572535734.6351056,108920,154755,5091
1572535734.6438107,108966,154723,5085
1572535734.6519754,108998,154681,5076
1572535734.6602254,108974,154772,5112
1572535734.6643188,108992,154767,5083
1572535734.6725,108941,154716,5100
1572535734.6804237,109005,154818,5106
1572535734.6889021,108985,154819,5095
1572535734.6970458,108983,154763,5098
1572535734.7052739,108985,154728,5121
1572535734.7135634,108981,154848,5083
1572535734.7178726,109000,154801,5093
1572535734.7249885,108956,154865,5128
1572535734.7340488,108991,154855,5106
1572535734.742172,108984,154857,5086
1572535734.750311,109010,154817,5103
1572535734.758382,108979,154839,5142
1572535734.7624207,109004,154819,5093
1572535734.7704134,108992,154858,5074
1572535734.7788908,109014,154821,5063
1572535734.7871406,108991,154791,5079
1572535734.7953944,108980,154836,5101
1572535734.803735,108970,154819,5105
1572535734.8077455,108916,154820,5113
1572535734.8158154,108959,154800,5111
1572535734.8234608,108935,154766,5118
1572535734.832385,108954,154793,5147
1572535734.8403907,108919,154716,5141
1572535734.848411,108958,154715,5108
1572535734.8524256,108975,154765,5088
1572535734.8608902,108922,154772,5129
1572535734.8690634,108989,154761,5096
1572535734.8771043,108952,154754,5106
1572535734.8854501,108977,154770,5118
1572535734.8930147,108951,154759,5101
1572535734.897791,108907,154745,5112
1572535734.9052029,108938,154801,5111
1572535734.9142463,108964,154828,5072
1572535734.9223907,108957,154818,5100
1572535734.9305367,108976,154805,5134
1572535734.938739,108960,154842,5096
1572535734.9428391,108947,154836,5108
1572535734.9504018,108925,154854,5095
1572535734.959214,108968,154854,5091
1572535734.967398,108950,154880,5130
1572535734.9751086,108986,154843,5119
1572535734.9837892,108927,154818,5098
1572535734.9878874,108978,154900,5120
1572535734.9960866,108963,154894,5065
1572535735.004287,108997,154852,5133
1572535735.0126336,108936,154826,5112
1572535735.0206723,108978,154952,5122
1572535735.028861,108979,154872,5108
1572535735.0329306,108946,154903,5088
1572535735.04077,108975,154875,5118
1572535735.0493886,108968,154931,5100
1572535735.057375,108966,154884,5103
1572535735.0657077,108979,154889,5125
1572535735.0739088,108965,154872,5120
1572535735.0782473,108954,154933,5092
1572535735.086183,108991,154923,5101
1572535735.0943825,108970,154893,5084
1572535735.1025572,108953,154892,5130
1572535735.110618,108925,154927,5110
1572535735.118957,108971,154891,5115
1572535735.1230571,108905,154947,5120
1572535735.1314251,108941,154912,5122
1572535735.1394715,108979,154956,5135
1572535735.1476042,108908,154887,5115
1572535735.1558027,108959,154900,5117
1572535735.1640053,108973,154886,5101
1572535735.1721768,108916,154953,5113
1572535735.1805487,108959,154966,5096
1572535735.1846209,108993,154959,5132
1572535735.1926804,108966,154978,5131
1572535735.200825,108983,154950,5109
1572535735.2086916,108919,154944,5127
1572535735.2167606,108955,154941,5145
1572535735.2254674,108993,154930,5092
1572535735.2336233,108929,154888,5104
1572535735.237633,108961,154804,5136
1572535735.2458973,108905,154808,5120
1572535735.254184,108875,154749,5111
1572535735.2624521,108876,154736,5114
1572535735.2705705,108879,154657,5115
1572535735.2786734,108869,154647,5107
1572535735.2828007,108860,154575,5115
1572535735.2909486,108787,154539,5094
1572535735.2988772,108852,154627,5109
1572535735.3073728,108861,154587,5087
1572535735.3152885,108859,154552,5112
1572535735.3237486,108820,154541,5070
1572535735.327304,108835,154636,5105
1572535735.335653,108865,154613,5088
1572535735.343675,108830,154635,5103
1572535735.3517318,108829,154648,5092
1572535735.3608558,108872,154686,5117
1572535735.3687959,108880,154715,5063
1572535735.3728979,108871,154666,5087
1572535735.3806562,108869,154719,5100
1572535735.3893564,108887,154761,5064
1572535735.3974216,108885,154775,5112
1572535735.4057033,108879,154791,5122
1572535735.4137936,108818,154740,5111
1572535735.4179573,108861,154738,5115
1572535735.426118,108849,154755,5093
1572535735.4343705,108875,154788,5125
1572535735.4422226,108917,154764,5076
1572535735.450318,108891,154780,5053
1572535735.458248,108914,154787,5103
1572535735.463264,108877,154751,5094
1572535735.4712558,108834,154783,5097
1572535735.4793684,108829,154816,5087
1572535735.4873922,108873,154820,5071
1572535735.495679,108855,154809,5083
1572535735.5034952,108916,154776,5125
1572535735.5076008,108833,154754,5085
1572535735.5159762,108821,154796,5079
1572535735.5244398,108835,154771,5084
1572535735.532611,108870,154683,5098
1572535735.5408669,108859,154731,5072
1572535735.5486565,108835,154700,5047
1572535735.5527518,108800,154683,5084
1572535735.561368,108866,154721,5087
1572535735.5694594,108831,154728,5074
1572535735.5776892,108847,154729,5129
1572535735.5858867,108841,154687,5121
1572535735.594162,108833,154747,5105
1572535735.598189,108866,154701,5099
1572535735.6057098,108821,154755,5083
1572535735.6145077,108816,154717,5089
1572535735.6223803,108833,154767,5132
1572535735.630592,108853,154776,5052
1572535735.6384811,108837,154742,5116
1572535735.6434734,108861,154738,5077
1572535735.6516068,108838,154796,5056
1572535735.659685,108877,154807,5074
1572535735.6678102,108854,154798,5044
1572535735.6758184,108832,154829,5060
1572535735.6840296,108863,154841,5094
1572535735.6917827,108839,154867,5083
1572535735.696484,108830,154831,5081
1572535735.7046292,108841,154861,5101
1572535735.712859,108860,154853,5132
1572535735.7210236,108805,154806,5106
1572535735.7290142,108848,154844,5086
1572535735.7374048,108837,154844,5082
1572535735.7411423,108822,154897,5130
1572535735.7538037,108868,154875,5059
1572535735.758178,108847,154851,5068
1572535735.7662418,108860,154845,5109
1572535735.7741408,108846,154834,5098
1572535735.7824786,108862,154892,5106
1572535735.7862725,108831,154896,5108
1572535735.7984645,108885,154898,5067
1572535735.8023136,108842,154904,5107
1572535735.8113122,108868,154902,5123
1572535735.8193464,108799,154860,5102
1572535735.8275425,108825,154905,5082
1572535735.831936,108813,154889,5087
1572535735.8441846,108857,154846,5094
1572535735.847489,108838,154838,5078
1572535735.8555245,108844,154898,5157
1572535735.864372,108842,154888,5102
1572535735.8725178,108814,154925,5105
1572535735.876683,108849,154907,5117
1572535735.8889306,108855,154897,5071
1572535735.892521,108861,154859,5071
1572535735.9011848,108844,154945,5149
1572535735.9094555,108864,154889,5098
1572535735.9176657,108832,154954,5083
1572535735.92175,108839,154921,5108
1572535735.9340641,108845,154927,5140
1572535735.9381473,108854,154927,5097
1572535735.9463499,108856,154886,5111
1572535735.9544804,108818,154901,5105
1572535735.962721,108838,154918,5076
1572535735.9668243,108863,154885,5101
1572535735.9791667,108828,154853,5101
1572535735.9832397,108752,154806,5099
1572535735.9914117,108782,154766,5096
1572535735.9996119,108773,154755,5106
1572535736.007489,108773,154686,5106
1572535736.01159,108713,154642,5112
1572535736.0241876,108766,154577,5108
1572535736.0282867,108710,154609,5098
1572535736.0364857,108746,154613,5093
1572535736.043868,108718,154618,5078
1572535736.0528607,108727,154578,5112
1572535736.061,108772,154595,5044
1572535736.069261,108728,154633,5097
1572535736.0733886,108751,154601,5100
1572535736.0815349,108732,154634,5075
1572535736.0897074,108703,154670,5073
1572535736.0980294,108704,154676,5072
1572535736.1055958,108767,154624,5057
1572535736.1143115,108756,154698,5061
1572535736.1186633,108771,154708,5067
1572535736.1262949,108680,154693,5078
1572535736.1346846,108748,154759,5041
1572535736.142983,108744,154753,5064
1572535736.1512551,108783,154674,5077
1572535736.159361,108789,154746,5064
1572535736.1634564,108768,154752,5056
1572535736.171656,108736,154700,5085
1572535736.1798022,108792,154793,5092
1572535736.1877348,108765,154801,5056
1572535736.1962016,108770,154760,5112
1572535736.2044046,108755,154742,5081
1572535736.212576,108755,154786,5052
1572535736.2160854,108802,154774,5072
1572535736.2248514,108741,154810,5098
1572535736.233063,108766,154781,5095
1572535736.241224,108761,154782,5069
1572535736.2494817,108776,154764,5105
1572535736.2576265,108745,154755,5105
1572535736.2617624,108777,154723,5063
1572535736.2699916,108746,154751,5034
1572535736.2780697,108777,154734,5055
1572535736.2863314,108730,154688,5083
1572535736.2940407,108724,154754,5061
1572535736.3026578,108745,154727,5064
1572535736.306684,108698,154753,5063
1572535736.314735,108707,154712,5046
1572535736.3227556,108751,154714,5067
1572535736.3310657,108730,154720,5119
1572535736.3390853,108687,154670,5077
1572535736.346979,108726,154700,5067
1572535736.3519917,108748,154710,5064
1572535736.359659,108737,154744,5095
1572535736.368153,108750,154721,5064
1572535736.3757844,108738,154761,5066
1572535736.384546,108802,154723,5095
1572535736.3926353,108756,154789,5065
1572535736.3968813,108725,154832,5073
1572535736.4047992,108707,154814,5090
1572535736.4128215,108769,154820,5079
1572535736.4216783,108717,154847,5093
1572535736.429659,108772,154767,5101
1572535736.437831,108725,154792,5083
1572535736.441953,108734,154845,5051
1572535736.4500482,108684,154839,5079
1572535736.45833,108768,154791,5057
1572535736.4664764,108752,154862,5088
1572535736.4747026,108728,154817,5075
1572535736.482389,108714,154831,5096
1572535736.4863677,108781,154875,5094
1572535736.4951777,108745,154873,5069
1572535736.503289,108758,154792,5089
1572535736.5114968,108741,154798,5106
1572535736.5197313,108759,154814,5065
1572535736.5279536,108732,154850,5072
1572535736.5320368,108712,154888,5096
1572535736.5402255,108759,154893,5095
1572535736.548377,108748,154892,5102
1572535736.5566251,108753,154830,5077
1572535736.5647757,108746,154886,5109
1572535736.573053,108763,154846,5095
1572535736.5770693,108758,154904,5077
1572535736.5853271,108757,154894,5116
1572535736.5931585,108755,154890,5082
1572535736.6019852,108773,154880,5078
1572535736.6098444,108738,154825,5091
1572535736.6178966,108753,154883,5106
1572535736.6223752,108741,154902,5062
1572535736.6304462,108764,154930,5068
1572535736.6386533,108755,154877,5087
1572535736.646254,108722,154893,5078
1572535736.654787,108734,154907,5096
1572535736.6631217,108686,154956,5106
1572535736.6712272,108725,154942,5086
1572535736.6753964,108718,154921,5091
1572535736.6876662,108734,154965,5123
1572535736.6917112,108693,154898,5098
1572535736.69979,108753,154904,5098
1572535736.708786,108755,154903,5078
1572535736.7158563,108719,154944,5106
1572535736.723948,108739,154929,5066
1572535736.7327154,108721,154881,5070
1572535736.7368472,108728,154859,5101
1572535736.7445693,108714,154792,5100
1572535736.7525902,108655,154756,5108
1572535736.7616134,108641,154703,5102
1572535736.7693026,108690,154684,5079
1572535736.7777886,108656,154641,5093
1572535736.7814581,108657,154598,5095
1572535736.789535,108587,154529,5097
1572535736.7977104,108590,154610,5080
1572535736.8062391,108641,154603,5071
1572535736.81407,108626,154511,5058
1572535736.822094,108635,154583,5092
1572535736.8270786,108627,154561,5068
1572535736.835085,108589,154546,5078
1572535736.8431072,108660,154642,5081
1572535736.8513007,108623,154663,5091
1572535736.8594227,108635,154628,5061
1572535736.8678398,108631,154623,5098
1572535736.8719804,108640,154682,5079
1572535736.880185,108619,154640,5077
1572535736.888388,108637,154755,5088
1572535736.896532,108649,154753,5070
1572535736.9047859,108654,154744,5115
1572535736.912963,108644,154744,5064
1572535736.9170601,108628,154743,5099
1572535736.9252338,108664,154743,5086
1572535736.9333875,108644,154782,5041
1572535736.9416459,108685,154778,5060
1572535736.9492028,108661,154758,5080
1572535736.9582176,108648,154808,5075
1572535736.9622278,108666,154801,5069
1572535736.9702497,108646,154820,5082
1572535736.9782708,108662,154802,5074
1572535736.9862912,108655,154772,5074
1572535736.9943123,108641,154780,5110
1572535737.0033364,108587,154706,5097
1572535737.007346,108636,154724,5096
1572535737.015368,108624,154773,5065
1572535737.0233889,108651,154756,5121
1572535737.03141,108652,154707,5057
1572535737.0401354,108627,154733,5096
1572535737.0481567,108653,154676,5101
1572535737.0521667,108646,154724,5084
1572535737.0601878,108580,154687,5088
1572535737.0684595,108592,154715,5088
1572535737.076481,108665,154722,5048
1572535737.0845025,108607,154717,5072
1572535737.0925224,108648,154696,5107
1572535737.0975358,108591,154688,5085
1572535737.1054823,108573,154743,5044
1572535737.1136453,108583,154727,5080
1572535737.1216948,108613,154651,5067
1572535737.1296062,108632,154757,5076
1572535737.1381793,108625,154740,5068
1572535737.1461012,108564,154698,5075
1572535737.1500823,108643,154792,5087
1572535737.1580904,108607,154794,5089
1572535737.1669126,108623,154769,5095
1572535737.174959,108622,154730,5070
1572535737.1830752,108618,154839,5109
1572535737.1910675,108641,154788,5080
1572535737.1950774,108580,154852,5066
1572535737.2030985,108650,154829,5050
1572535737.2121537,108648,154798,5083
1572535737.2195718,108626,154855,5067
1572535737.22824,108631,154826,5090
1572535737.2365236,108595,154850,5094
1572535737.240532,108632,154865,5062
1572535737.2483456,108650,154855,5088
1572535737.2563431,108634,154882,5117
1572535737.2649384,108575,154872,5097
1572535737.2733297,108631,154873,5093
1572535737.2815638,108621,154905,5090
1572535737.285362,108638,154887,5084
1572535737.2936456,108605,154849,5110
1572535737.3020718,108653,154901,5114
1572535737.3104439,108603,154830,5105
1572535737.31847,108625,154843,5089
1572535737.3267224,108625,154882,5092
1572535737.3301218,108626,154864,5122
1572535737.3432097,108673,154874,5084
1572535737.347121,108636,154865,5098
1572535737.3549726,108610,154843,5102
1572535737.3635702,108650,154804,5103
1572535737.3719296,108671,154873,5091
1572535737.3760662,108661,154905,5108
1572535737.3875,108645,154919,5077
1572535737.3921683,108601,154895,5109
1572535737.4003723,108644,154882,5116
1572535737.4078226,108619,154947,5112
1572535737.4167747,108628,154930,5119
1572535737.420786,108593,154923,5100
1572535737.4327881,108641,154901,5094
1572535737.436799,108635,154911,5119
1572535737.445608,108643,154959,5125
1572535737.4538307,108604,154873,5109
1572535737.461191,108609,154961,5088
1572535737.4659135,108639,154947,5100
1572535737.4774354,108630,154873,5132
1572535737.4823058,108656,154907,5112
1572535737.490504,108645,154920,5091
1572535737.4981441,108620,154915,5111
1572535737.5064397,108610,154907,5123
1572535737.5105076,108615,154869,5125
1572535737.5230074,108616,154835,5104
1572535737.527454,108589,154757,5114
1572535737.5354774,108553,154688,5124
1572535737.5436547,108580,154672,5106
1572535737.551918,108554,154658,5066
1572535737.5560355,108556,154620,5102
1572535737.5683095,108529,154586,5108
1572535737.572404,108496,154554,5116
1572535737.5805843,108498,154592,5083
1572535737.5887554,108547,154586,5073
1572535737.5969837,108496,154571,5119
1572535737.6044457,108521,154542,5114
1572535737.6133418,108513,154567,5084
1572535737.6174576,108505,154629,5079
1572535737.6254554,108519,154548,5086
1572535737.633803,108506,154636,5073
1572535737.6420143,108573,154671,5110
1572535737.6502037,108539,154690,5039
1572535737.6582584,108535,154737,5079
1572535737.666577,108570,154707,5110
1572535737.6707053,108550,154729,5082
1572535737.6788507,108522,154754,5098
1572535737.6869037,108502,154741,5075
1572535737.6952195,108568,154734,5066
1572535737.7028654,108546,154762,5100
1572535737.7115777,108554,154748,5099
1572535737.715754,108474,154666,5085
1572535737.7239242,108594,154793,5078
1572535737.7320552,108545,154791,5083
1572535737.740298,108562,154731,5082
1572535737.7485275,108571,154750,5118
1572535737.7561731,108550,154774,5091
1572535737.7602005,108536,154773,5098
1572535737.768974,108535,154786,5107
1572535737.776623,108538,154785,5091
1572535737.7853477,108547,154792,5086
1572535737.7935846,108559,154697,5078
1572535737.8017616,108506,154782,5112
1572535737.8058455,108563,154733,5081
1572535737.813372,108500,154762,5072
1572535737.82227,108526,154688,5097
1572535737.8300946,108522,154705,5089
1572535737.8388143,108555,154721,5087
1572535737.8468237,108508,154663,5093
1572535737.8509238,108515,154678,5097
1572535737.8591065,108482,154711,5079
1572535737.8674543,108536,154708,5106
1572535737.8755062,108526,154703,5064
1572535737.8836505,108515,154724,5069
1572535737.89194,108525,154722,5096
1572535737.8961158,108508,154724,5097
1572535737.9043121,108491,154744,5062
1572535737.912357,108555,154762,5095
1572535737.9205859,108512,154776,5077
1572535737.9286704,108473,154778,5074
1572535737.9369855,108507,154804,5091
1572535737.940496,108547,154829,5086
1572535737.948793,108512,154807,5097
1572535737.95741,108511,154813,5093
1572535737.9655983,108549,154852,5122
1572535737.9737556,108482,154777,5125
1572535737.9820337,108536,154813,5105
1572535737.9861336,108554,154867,5078
1572535737.9943366,108558,154855,5115
1572535738.002478,108540,154865,5084
1572535738.0102127,108555,154853,5075
1572535738.0188794,108572,154829,5109
1572535738.0268037,108551,154831,5101
1572535738.031119,108497,154869,5091
1572535738.0387716,108571,154900,5116
1572535738.0469213,108573,154889,5076
1572535738.0568762,108531,154888,5125
1572535738.0639274,108561,154875,5158
1572535738.0721116,108544,154856,5103
1572535738.080237,108534,154912,5113
1572535738.0843892,108530,154909,5102
1572535738.0925903,108527,154871,5090
1572535738.1002588,108535,154907,5064
1572535738.1089334,108572,154859,5131
1572535738.1171627,108486,154818,5108
1572535738.1252475,108558,154891,5124
1572535738.1293192,108560,154902,5107
1572535738.1417131,108537,154820,5121
1572535738.1458364,108514,154833,5070
1572535738.1536446,108540,154840,5131
1572535738.1622598,108506,154844,5102
1572535738.170301,108529,154922,5117
1572535738.174512,108509,154885,5096
1572535738.1867576,108529,154924,5088
1572535738.1905224,108531,154879,5079
1572535738.1984863,108519,154895,5125
1572535738.2072587,108536,154872,5123
1572535738.2154582,108532,154911,5092
1572535738.2195585,108521,154901,5128
1572535738.231151,108546,154922,5103
1572535738.2353184,108561,154949,5108
1572535738.243519,108541,154910,5129
1572535738.2525613,108498,154946,5116
1572535738.2603872,108555,154977,5099
1572535738.2648232,108555,154975,5112
1572535738.2768815,108557,154970,5141
1572535738.2810764,108496,154926,5150
1572535738.2893095,108503,154910,5127
1572535738.297382,108540,154948,5129
1572535738.3055801,108490,154898,5155
1572535738.30966,108507,154838,5132
1572535738.3217065,108502,154798,5115
1572535738.3254726,108414,154730,5132
1572535738.3342524,108456,154683,5117
1572535738.3424277,108421,154666,5112
1572535738.3506281,108423,154629,5138
1572535738.3587718,108427,154577,5104
1572535738.3664045,108419,154543,5125
1572535738.371069,108432,154556,5111
1572535738.3793051,108418,154488,5095
1572535738.3874292,108370,154503,5088
1572535738.3953624,108367,154557,5125
1572535738.403851,108414,154600,5068
1572535738.4118752,108396,154583,5080
1572535738.4159122,108427,154558,5145
1572535738.4239054,108414,154579,5079
1572535738.4320698,108415,154666,5093
1572535738.4400911,108380,154660,5091
1572535738.4491146,108449,154631,5094
1572535738.4571693,108448,154678,5078
1572535738.461147,108447,154731,5111
1572535738.4691918,108386,154643,5079
1572535738.477213,108464,154738,5089
1572535738.4853973,108438,154722,5091
1572535738.4934285,108455,154672,5099
1572535738.5022082,108448,154677,5099
1572535738.5062187,108453,154775,5092
1572535738.51424,108454,154745,5081
1572535738.5222611,108404,154804,5076
1572535738.5303156,108428,154792,5094
1572535738.5383031,108459,154784,5090
1572535738.547327,108465,154737,5094
1572535738.554736,108443,154783,5118
1572535738.5597494,108464,154756,5097
1572535738.5677695,108429,154786,5090
1572535738.5758007,108440,154758,5092
1572535738.584225,108438,154774,5082
1572535738.5922358,108456,154722,5064
1572535738.6001718,108423,154677,5125
1572535738.6042693,108429,154696,5082
1572535738.6120389,108421,154730,5072
1572535738.621061,108423,154714,5077
1572535738.6290839,108413,154703,5077
1572535738.6370745,108381,154711,5058
1572535738.645124,108429,154694,5092
1572535738.6491342,108419,154716,5099
1572535738.657156,108378,154708,5090
1572535738.6661787,108427,154738,5100
1572535738.6741996,108411,154727,5123
1572535738.6822119,108348,154708,5094
1572535738.6902144,108390,154702,5092
1572535738.6942525,108407,154708,5082
1572535738.7022734,108397,154737,5120
1572535738.7103124,108441,154757,5088
1572535738.7193365,108422,154743,5115
1572535738.7273295,108415,154792,5114
1572535738.7353494,108439,154773,5101
1572535738.7393606,108419,154763,5093
1572535738.747381,108444,154807,5104
1572535738.7554305,108493,154827,5076
1572535738.7646027,108396,154820,5109
1572535738.772623,108439,154829,5126
1572535738.7806447,108399,154821,5084
1572535738.7846828,108417,154829,5107
1572535738.7927048,108403,154874,5086
1572535738.801051,108445,154808,5119
1572535738.8090715,108454,154849,5124
1572535738.8171043,108434,154853,5142
1572535738.8255224,108370,154786,5106
1572535738.8298547,108452,154880,5129
1572535738.8380067,108431,154874,5089
1572535738.846143,108451,154812,5109
1572535738.854412,108448,154830,5102
1572535738.861987,108450,154831,5109
1572535738.870305,108411,154840,5105
1572535738.874384,108431,154893,5127
1572535738.8826294,108435,154862,5109
1572535738.891278,108435,154898,5095
1572535738.8994865,108460,154846,5103
1572535738.907645,108416,154873,5106
1572535738.9158628,108470,154843,5102
1572535738.9199574,108436,154880,5072
1572535738.928129,108495,154857,5117
1572535738.9365864,108435,154900,5127
1572535738.944261,108473,154913,5117
1572535738.9527054,108441,154866,5122
1572535738.9609082,108407,154900,5097
1572535738.9650128,108446,154902,5097
1572535738.9732594,108469,154912,5126
1572535738.9813874,108463,154907,5111
1572535738.9895828,108401,154896,5107
1572535738.9976976,108421,154931,5117
1572535739.0059483,108468,154955,5103
1572535739.0141335,108398,154947,5141
1572535739.0182586,108443,154935,5127
1572535739.0301762,108456,154979,5128
1572535739.0341887,108381,154960,5152
1572535739.042803,108453,154944,5111
1572535739.051032,108454,154992,5121
1572535739.0590968,108439,154977,5157
1572535739.067376,108452,154968,5089
1572535739.0756538,108459,154942,5132
1572535739.0796626,108414,154955,5126
1572535739.087852,108428,154863,5120
1572535739.0960796,108394,154838,5149
1572535739.1042519,108378,154846,5128
1572535739.1123168,108408,154823,5079
1572535739.120624,108365,154767,5113
1572535739.1247191,108371,154674,5134
1572535739.1328986,108353,154639,5110
1572535739.141151,108316,154642,5108
1572535739.1493266,108255,154607,5088
1572535739.1575441,108328,154530,5081
1572535739.1656995,108322,154578,5120
1572535739.1698,108325,154549,5109
1572535739.177816,108271,154476,5087
1572535739.1862233,108325,154591,5095
1572535739.1940825,108308,154572,5086
1572535739.2028995,108336,154527,5087
1572535739.2109203,108304,154554,5102
1572535739.2149308,108330,154621,5134
1572535739.222952,108328,154639,5086
1572535739.2312129,108310,154668,5102
1572535739.2394426,108322,154690,5085
1572535739.247621,108348,154737,5081
1572535739.2552118,108364,154688,5088
1572535739.25992,108362,154708,5107
1572535739.2680497,108373,154723,5080
1572535739.276292,108329,154770,5067
1572535739.2844367,108384,154759,5102
1572535739.2921386,108371,154776,5116
1572535739.300867,108390,154769,5091
1572535739.3049667,108351,154774,5105
1572535739.313366,108379,154754,5091
1572535739.321568,108366,154812,5059
1572535739.3293786,108387,154790,5075
1572535739.33774,108375,154772,5053
1572535739.3457167,108375,154824,5102
1572535739.3497698,108352,154800,5100
1572535739.3581834,108377,154834,5086
1572535739.3661513,108324,154779,5101
1572535739.3745267,108349,154786,5108
1572535739.3825972,108335,154777,5117
1572535739.390987,108292,154715,5121
1572535739.394736,108303,154732,5093
1572535739.4032633,108337,154764,5066
1572535739.4113276,108345,154740,5130
1572535739.4195716,108332,154692,5116
1572535739.4278066,108317,154704,5098
1572535739.4360328,108329,154744,5090
1572535739.4400072,108321,154696,5101
1572535739.4483097,108276,154657,5095
1572535739.4564824,108290,154729,5107
1572535739.4643188,108340,154720,5089
1572535739.4729407,108294,154764,5111
1572535739.4811912,108360,154709,5119
1572535739.4892101,108305,154727,5107
1572535739.4932206,108302,154781,5084
1572535739.5012546,108268,154791,5095
1572535739.509263,108354,154745,5090
1572535739.5176275,108345,154814,5095
1572535739.5262988,108339,154793,5157
1572535739.5340476,108293,154758,5087
1572535739.5380585,108356,154846,5095
1572535739.5460494,108323,154840,5091
1572535739.5547924,108350,154770,5118
1572535739.5631204,108365,154826,5089
1572535739.5706432,108363,154825,5109
1572535739.5796664,108296,154835,5097
1572535739.5836768,108379,154884,5114
1572535739.591698,108333,154872,5117
1572535739.5998774,108366,154902,5099
1572535739.608141,108349,154850,5076
1572535739.6163478,108345,154910,5135
1572535739.6236732,108386,154880,5109
1572535739.6288173,108355,154942,5083
1572535739.6367302,108390,154913,5102
1572535739.645181,108354,154898,5099
1572535739.6531034,108325,154927,5089
1572535739.6613321,108358,154890,5112
1572535739.6695087,108318,154922,5113
1572535739.6734548,108308,154929,5080
1572535739.6817791,108327,154936,5118
1572535739.6896555,108349,154929,5145
1572535739.698192,108315,154905,5137
1572535739.706455,108352,154892,5119
1572535739.7145507,108342,154904,5105
1572535739.718379,108313,154916,5152
1572535739.7309484,108356,154898,5121
1572535739.7350526,108350,154883,5130
1572535739.7426596,108349,154933,5125
1572535739.7513833,108361,154873,5128
1572535739.7594755,108353,154892,5120
1572535739.7637305,108336,154958,5153
1572535739.7759626,108398,154958,5090
1572535739.7800694,108348,154947,5128
1572535739.7882998,108387,154943,5105
1572535739.7964747,108341,154983,5123
1572535739.804469,108361,154955,5117
1572535739.8087757,108344,154973,5136
1572535739.8209946,108369,154991,5095
1572535739.825064,108357,155013,5117
1572535739.833345,108374,154967,5111
1572535739.8415196,108288,154934,5134
1572535739.849505,108309,154935,5108
1572535739.8534884,108313,154899,5112
1572535739.865521,108319,154818,5142
1572535739.8702123,108295,154830,5134
1572535739.878481,108306,154721,5132
1572535739.886566,108234,154660,5122
1572535739.894799,108271,154701,5116
1572535739.9026625,108217,154641,5082
1572535739.9111948,108237,154584,5123
1572535739.91527,108210,154503,5074
1572535739.9234455,108228,154571,5156
1572535739.9316158,108196,154552,5099
1572535739.9398444,108230,154572,5118
1572535739.9480867,108223,154591,5097
1572535739.9562187,108224,154611,5072
1572535739.9643183,108220,154588,5083
1572535739.968562,108233,154661,5097
1572535739.9766638,108247,154635,5103
1572535739.984222,108226,154695,5074
1572535739.9923584,108249,154681,5099
1572535740.0013509,108264,154729,5105
1572535740.009371,108256,154722,5121
1572535740.0133548,108278,154689,5118
1572535740.0217106,108279,154723,5105
1572535740.029834,108264,154789,5078
1572535740.0380545,108280,154803,5095
1572535740.0455852,108278,154813,5135
1572535740.0545115,108229,154791,5100
1572535740.0583358,108273,154781,5102
1572535740.0667815,108317,154847,5093
1572535740.0747445,108293,154835,5168
1572535740.083148,108253,154820,5116
1572535740.0913782,108280,154820,5142
1572535740.099559,108256,154851,5105
1572535740.103662,108289,154821,5105
1572535740.1118345,108298,154843,5102
1572535740.120058,108237,154837,5130
1572535740.1274636,108278,154828,5075
1572535740.1359985,108269,154791,5102
1572535740.1448605,108266,154805,5129
1572535740.1489055,108241,154772,5111
1572535740.1568794,108253,154776,5117
1572535740.1649737,108190,154754,5091
1572535740.1732805,108248,154738,5063
1572535740.180711,108246,154749,5095
1572535740.1895332,108265,154704,5088
1572535740.1931326,108193,154674,5104
1572535740.2012448,108231,154768,5086
1572535740.2101772,108258,154758,5086
1572535740.2181532,108262,154673,5089
1572535740.2265527,108252,154716,5105
1572535740.234854,108261,154728,5108
1572535740.2388647,108236,154723,5102
1572535740.246757,108259,154772,5112
1572535740.2551775,108215,154777,5102
1572535740.2636223,108279,154805,5115
1572535740.2716007,108260,154760,5088
1572535740.2797916,108244,154846,5136
1572535740.2838602,108278,154809,5099
1572535740.2916312,108238,154850,5095
1572535740.2998323,108229,154851,5089
1572535740.3084245,108247,154870,5068
1572535740.3163433,108281,154856,5082
1572535740.3246167,108275,154869,5138
1572535740.3287287,108290,154829,5116
1572535740.3371737,108259,154907,5075
1572535740.345241,108289,154869,5132
1572535740.3535237,108305,154897,5092
1572535740.3615885,108288,154921,5109
1572535740.3697178,108288,154900,5120
1572535740.3778763,108266,154885,5115
1572535740.382067,108300,154932,5089
1572535740.390222,108307,154910,5121
1572535740.3985965,108287,154928,5110
1572535740.4061613,108271,154920,5094
1572535740.415184,108256,154945,5108
1572535740.423205,108282,154941,5104
1572535740.4272153,108273,154961,5142
1572535740.4392471,108320,154917,5106
1572535740.4432573,108299,154908,5124
1572535740.4517825,108283,154950,5127
1572535740.459805,108301,154915,5119
1572535740.4676142,108225,154847,5127
1572535740.471805,108280,154939,5132
1572535740.4845626,108300,154954,5093
1572535740.4889638,108258,154949,5148
1572535740.4964516,108298,154921,5152
1572535740.5047452,108258,154922,5109
1572535740.5130796,108257,154982,5100
1572535740.5175252,108238,154965,5096
1572535740.5295675,108291,154910,5140
1572535740.5335503,108292,154963,5108
1572535740.5421107,108282,154918,5107
1572535740.5504215,108237,154899,5127
1572535740.557594,108272,154979,5141
1572535740.5623465,108272,154956,5146
1572535740.5745826,108271,154937,5125
1572535740.5786526,108263,154868,5097
1572535740.5869615,108250,154925,5148
1572535740.5951204,108256,154828,5125
1572535740.6033354,108205,154796,5101
1572535740.6074634,108201,154736,5127
1572535740.6198223,108213,154725,5117
1572535740.6239293,108193,154626,5107
1572535740.632014,108167,154611,5128
1572535740.6402385,108160,154587,5099
1572535740.6484578,108186,154594,5061
1572535740.6519043,108192,154585,5076
1572535740.6648114,108162,154552,5079
1572535740.668912,108154,154598,5099
1572535740.6773312,108145,154529,5113
1572535740.685509,108170,154585,5111
1572535740.6930814,108162,154652,5079
1572535740.6975162,108176,154664,5094
1572535740.7098644,108191,154672,5098
1572535740.7136226,108112,154650,5117
1572535740.7223577,108173,154673,5106
1572535740.7303374,108155,154736,5082
1572535740.7384634,108174,154741,5140
1572535740.7426329,108162,154732,5116
1572535740.7542703,108196,154802,5108
1572535740.7592516,108154,154768,5084
1572535740.7673306,108193,154789,5105
1572535740.7747028,108155,154785,5080
1572535740.7843516,108218,154815,5136
1572535740.791779,108218,154832,5083
1572535740.7998166,108209,154838,5060
1572535740.80398,108176,154792,5118
1572535740.81241,108228,154844,5105
1572535740.8204274,108180,154804,5101
1572535740.8286462,108180,154851,5100
1572535740.8367953,108226,154846,5079
1572535740.845029,108182,154875,5091
1572535740.848718,108219,154799,5105
1572535740.8573043,108166,154775,5100
1572535740.8649175,108172,154814,5082
1572535740.8731325,108154,154801,5080
1572535740.8820963,108201,154705,5070
1572535740.8901367,108175,154747,5094
1572535740.8980527,108196,154707,5106
1572535740.9017909,108089,154655,5086
1572535740.9099386,108176,154715,5087
1572535740.9185321,108172,154707,5092
1572535740.926657,108175,154655,5108
1572535740.9351504,108129,154635,5086
1572535740.9429693,108169,154730,5104
1572535740.9469817,108129,154710,5100
1572535740.9555707,108140,154727,5115
1572535740.9638004,108151,154739,5097
1572535740.971945,108173,154746,5078
1572535740.9803255,108192,154738,5065
1572535740.9883716,108178,154732,5095
1572535740.9924438,108151,154745,5105
1572535741.0006258,108193,154780,5070
1572535741.0088327,108210,154805,5065
1572535741.016994,108178,154813,5071
1572535741.0252476,108176,154828,5091
1572535741.0334222,108203,154868,5100
1572535741.037547,108169,154887,5092
1572535741.0456939,108200,154873,5086
1572535741.0539656,108160,154882,5097
1572535741.061735,108204,154890,5131
1572535741.0702953,108148,154833,5128
1572535741.0784948,108172,154858,5114
1572535741.0825937,108170,154914,5091
1572535741.0900695,108182,154910,5123
1572535741.098331,108239,154887,5095
1572535741.1071422,108210,154896,5087
1572535741.1153407,108186,154904,5125
1572535741.1235428,108208,154902,5116
1572535741.1275802,108166,154873,5109
1572535741.1358182,108142,154930,5129
1572535741.1441252,108213,154917,5094
1572535741.1521902,108195,154938,5124
1572535741.1604202,108205,154897,5139
1572535741.1686525,108173,154895,5114
1572535741.1726918,108165,154930,5088
1572535741.180944,108150,154937,5120
1572535741.1890175,108190,154843,5125
1572535741.1970382,108202,154910,5090
1572535741.2050898,108180,154894,5106
1572535741.2131085,108156,154848,5110
1572535741.217119,108166,154956,5117
1572535741.2259533,108166,154954,5098
1572535741.2341375,108187,154939,5100
1572535741.242098,108181,154853,5113
1572535741.2505112,108184,154969,5167
1572535741.2587125,108191,154920,5096
1572535741.262697,108174,154966,5104
1572535741.2706368,108178,154969,5132
1572535741.279187,108171,154957,5152
1572535741.287408,108173,154949,5132
1572535741.2955585,108176,154911,5159
1572535741.3039954,108147,154925,5116
1572535741.3080995,108173,154929,5090
1572535741.3160324,108208,154902,5110
1572535741.3241432,108152,154856,5142
1572535741.332435,108150,154837,5095
1572535741.340605,108113,154729,5128
1572535741.3490067,108071,154698,5124
1572535741.3565059,108048,154659,5104
1572535741.361225,108067,154567,5113
1572535741.3692749,108049,154549,5107
1572535741.377484,107999,154485,5119
1572535741.38547,108034,154489,5109
1572535741.3938825,108077,154488,5105
1572535741.402149,107962,154492,5128
1572535741.4102566,108028,154493,5070
1572535741.4184418,108018,154489,5101
1572535741.422569,107995,154530,5086
1572535741.4307914,108052,154513,5092
1572535741.4389317,108016,154473,5068
1572535741.4464774,108012,154567,5110
1572535741.4546993,108036,154599,5065
1572535741.4631548,108046,154579,5068
1572535741.4676218,108045,154593,5095
1572535741.4750953,108078,154622,5104
1572535741.4837942,108065,154664,5091
1572535741.4919565,107996,154659,5076
1572535741.500528,108079,154649,5068
1572535741.5085804,108062,154700,5102
1572535741.5126526,108092,154691,5096
1572535741.5208268,108033,154638,5089
1572535741.5288072,108065,154704,5067
1572535741.5372264,108058,154710,5093
1572535741.5454283,108085,154646,5110
1572535741.5536008,108103,154651,5081
1572535741.557738,108063,154663,5105
1572535741.5651977,108053,154711,5100
1572535741.5741293,108066,154689,5113
1572535741.5822623,108064,154714,5092
1572535741.5904393,108079,154703,5098
1572535741.5983908,108076,154668,5097
1572535741.6025844,108036,154657,5090
1572535741.610947,108050,154639,5108
1572535741.6185672,108049,154658,5061
1572535741.627293,108072,154642,5088
1572535741.6356306,108062,154640,5089
1572535741.6437273,108026,154620,5087
1572535741.6478245,108041,154611,5104
1572535741.6557393,108024,154647,5086
1572535741.6641953,108046,154622,5106
1572535741.6723416,107992,154591,5105
1572535741.6801167,108031,154598,5103
1572535741.6888745,108023,154656,5101
1572535741.6929176,108057,154569,5068
1572535741.7011242,108046,154563,5085
1572535741.7088745,108038,154651,5114
1572535741.7174149,108050,154656,5055
1572535741.725286,108048,154670,5096
1572535741.733356,108055,154594,5088
1572535741.7375503,108057,154674,5093
1572535741.746085,108020,154733,5092
1572535741.75429,108013,154697,5089
1572535741.7623723,108052,154707,5085
1572535741.7706902,108034,154725,5087
1572535741.778787,108062,154762,5124
1572535741.7829916,108022,154730,5090
1572535741.7911916,108039,154787,5098
1572535741.7993274,108022,154762,5091
1572535741.8075778,108072,154731,5080
1572535741.8157375,108090,154754,5118
1572535741.823858,108089,154729,5118
1572535741.8280416,108013,154733,5098
1572535741.8359613,108075,154771,5100
1572535741.8440466,108069,154749,5062
1572535741.8528628,108067,154723,5087
1572535741.8607843,108046,154708,5108
1572535741.8687391,108083,154813,5114
1572535741.8769922,108067,154779,5113
1572535741.8811543,108040,154792,5064
1572535741.8894503,108055,154786,5105
1572535741.8972125,108070,154780,5102
1572535741.9058356,108079,154788,5075
1572535741.913648,108067,154724,5122
1572535741.9217756,108055,154779,5114
1572535741.9257748,108086,154804,5078
1572535741.934507,108073,154801,5084
1572535741.9423456,108068,154811,5079
1572535741.9505336,108042,154781,5086
1572535741.9592924,108073,154811,5101
1572535741.9673285,108072,154838,5091
1572535741.9714088,108037,154825,5125
1572535741.9795558,108045,154785,5102
1572535741.9877307,108070,154797,5126
1572535741.9959292,108027,154767,5128
1572535742.0039604,108067,154795,5113
1572535742.012274,108036,154847,5093
1572535742.0164573,108077,154848,5149
1572535742.0287302,108089,154808,5084
1572535742.0328333,108080,154805,5086
1572535742.0410037,108085,154805,5127
1572535742.0492172,108082,154813,5105
1572535742.0574226,108054,154788,5097
1572535742.0614038,108032,154799,5099
1572535742.0737798,108054,154745,5076
1572535742.0779064,108012,154682,5097
1572535742.0863492,108013,154606,5100
1572535742.0942798,108008,154537,5100
1572535742.1024787,107977,154510,5097
1572535742.1065671,107890,154485,5090
1572535742.1186328,107931,154398,5064
1572535742.1226704,107934,154422,5079
1572535742.130692,107963,154362,5089
1572535742.1387124,107849,154284,5078
1572535742.1484857,107934,154371,5075
1572535742.1515198,107923,154368,5067
1572535742.163549,107930,154330,5060
1572535742.1676016,107892,154330,5060
1572535742.1755404,107929,154402,5073
1572535742.1836586,107908,154416,5059
1572535742.1926837,107937,154455,5075
1572535742.1966944,107927,154445,5064
1572535742.2089756,107951,154478,5040
1572535742.2127626,107962,154451,5089
1572535742.2207844,107931,154521,5041
1572535742.2291574,107987,154469,5059
1572535742.2371235,107931,154532,5043
1572535742.241724,107956,154491,5066
1572535742.2539942,107963,154519,5057
1572535742.2581053,107983,154542,5036
1572535742.2662108,107964,154483,5065
1572535742.274469,107942,154509,5062
1572535742.2826972,107971,154563,5007
1572535742.2908633,108003,154516,5033
1572535742.2990959,107966,154568,5027
1572535742.3033376,107962,154567,5025
1572535742.3114116,107976,154520,5072
1572535742.3194578,107926,154583,5060
1572535742.327747,107951,154552,5051
1572535742.335724,107961,154563,5080
1572535742.3438828,107955,154561,5099
1572535742.352291,107874,154460,5085
1572535742.356126,107932,154522,5051
1572535742.3640501,107929,154484,5043
1572535742.3727934,107896,154501,5083
1572535742.3809102,107968,154513,5019
1572535742.3891456,107942,154481,5047
1572535742.397012,107933,154446,5063
1572535742.400779,107913,154476,5072
1572535742.4096186,107908,154480,5074
1572535742.4178705,107881,154481,5045
1572535742.4252903,107927,154464,5065
1572535742.4340923,107903,154504,5074
1572535742.4422255,107956,154452,5055
1572535742.446337,107885,154454,5048
1572535742.4542103,107916,154497,5045
1572535742.4622617,107906,154502,5048
1572535742.4712563,107945,154425,5043
1572535742.479293,107953,154519,5063
1572535742.4875107,107926,154480,5033
1572535742.4914837,107895,154479,5054
1572535742.4996316,107961,154570,5051
1572535742.5077057,107932,154580,5050
1572535742.5155258,107943,154576,5080
1572535742.5239546,107930,154511,5069
1572535742.5319731,107955,154629,5058
1572535742.5369372,107959,154594,5043
1572535742.5448072,107923,154640,5069
1572535742.5529854,107933,154610,5050
1572535742.5611467,107948,154640,5037
1572535742.5693922,107945,154575,5059
1572535742.5768592,107921,154654,5090
1572535742.5816693,107959,154589,5065
1572535742.5892112,107930,154660,5033
1572535742.597589,107958,154617,5072
1572535742.6062453,107963,154620,5049
1572535742.6142387,107951,154613,5020
1572535742.6222923,107945,154589,5070
1572535742.6263242,107954,154633,5075
1572535742.6349204,107938,154660,5047
1572535742.642933,107975,154657,5074
1572535742.651311,107945,154641,5024
1572535742.65951,107941,154653,5056
1572535742.6677108,107944,154669,5075
1572535742.6716735,107980,154679,5067
1572535742.680161,107931,154670,5077
1572535742.6874208,107922,154662,5081
1572535742.6964166,107951,154660,5093
1572535742.7044847,107889,154600,5105
1572535742.7127588,107929,154696,5077
1572535742.7167714,107973,154694,5041
1572535742.725091,107938,154694,5110
1572535742.7331388,107933,154680,5060
1572535742.74143,107967,154632,5053
1572535742.7497275,107988,154690,5081
1572535742.75732,107970,154683,5070
1572535742.7613418,107893,154642,5081
1572535742.7701464,107939,154696,5106
1572535742.7782488,107962,154734,5043
1572535742.7866688,107927,154715,5086
1572535742.7944646,107964,154662,5107
1572535742.8028765,107947,154670,5065
1572535742.811074,107915,154646,5083
1572535742.8150916,107868,154581,5060
1572535742.8274453,107882,154516,5072
1572535742.8311417,107869,154476,5101
1572535742.8396947,107916,154401,5079
1572535742.8477204,107798,154297,5062
1572535742.856097,107850,154343,5046
1572535742.859664,107813,154276,5053
1572535742.8724332,107821,154165,5075
1572535742.8766212,107814,154212,5049
1572535742.8847558,107812,154186,4999
1572535742.892752,107770,154159,5026
1572535742.9011316,107839,154233,5039
1572535742.9052727,107782,154239,5051
1572535742.9172225,107806,154237,5029
1572535742.921326,107803,154188,5048
1572535742.9291382,107817,154285,5051
1572535742.93807,107823,154278,5039
1572535742.946274,107780,154325,5023
1572535742.950262,107821,154337,5022
1572535742.962382,107830,154333,5050
1572535742.966482,107851,154329,5001
1572535742.9748669,107841,154292,5049
1572535742.983094,107841,154341,5024
1572535742.9912686,107876,154390,4986
1572535742.9953396,107840,154388,5009
1572535743.0072646,107835,154357,4964
1572535743.0116718,107833,154441,5014
1572535743.0196652,107845,154394,5021
1572535743.0277576,107839,154414,5038
1572535743.0363424,107834,154408,5039
1572535743.0404418,107837,154385,5028
1572535743.0527163,107829,154454,5046
1572535743.056849,107776,154387,5042
1572535743.0646675,107835,154408,5015
1572535743.0731888,107827,154383,5028
1572535743.0812619,107830,154396,5049
1572535743.08549,107794,154353,5051
1572535743.097764,107835,154366,5034
1572535743.101865,107768,154290,5049
1572535743.1100323,107815,154348,5022
1572535743.118238,107791,154317,5011
1572535743.125831,107793,154343,5057
1572535743.1346133,107804,154313,5001
1572535743.1427748,107822,154309,5038
1572535743.146938,107781,154286,5020
1572535743.1551104,107819,154326,5014
1572535743.1629357,107805,154336,5018
1572535743.1715114,107770,154325,5055
1572535743.1796582,107790,154369,4990
1572535743.187374,107782,154357,5023
1572535743.1914296,107838,154396,5060
1572535743.200186,107795,154384,5014
1572535743.2080636,107781,154404,5001
1572535743.216841,107768,154386,5013
1572535743.2246208,107810,154295,4995
1572535743.232934,107821,154382,4994
1572535743.2369611,107805,154327,5026
1572535743.245159,107773,154353,5009
1572535743.2533758,107855,154428,5029
1572535743.2615542,107801,154411,5022
1572535743.269575,107832,154435,5028
1572535743.2775962,107818,154372,5031
1572535743.285617,107816,154493,5054
1572535743.2896237,107830,154451,5012
1572535743.2981215,107785,154464,5006
1572535743.3058488,107833,154446,5037
1572535743.315022,107842,154463,5034
1572535743.3230548,107848,154477,5010
1572535743.331206,107837,154461,5056
1572535743.3353302,107801,154453,5020
1572535743.3431034,107833,154481,5000
1572535743.3518667,107813,154520,5034
1572535743.3598735,107837,154491,5030
1572535743.3681037,107780,154469,5002
1572535743.3762584,107847,154467,5036
1572535743.3803785,107817,154520,5027
1572535743.3885622,107812,154509,5022
1572535743.3964763,107789,154493,5044
1572535743.4044707,107840,154525,5048
1572535743.4131105,107802,154469,5018
1572535743.421277,107839,154455,5034
1572535743.4253933,107804,154498,5028
1572535743.432923,107848,154482,5067
1572535743.4417744,107850,154526,5016
1572535743.4500465,107821,154474,5011
1572535743.4580646,107827,154479,5053
1572535743.466033,107816,154495,5034
1572535743.4700778,107846,154526,5049
1572535743.4780955,107781,154521,5049
1572535743.4866023,107833,154520,5033
1572535743.4983888,107836,154561,5075
1572535743.5034318,107861,154517,5037
1572535743.5114527,107778,154480,5035
1572535743.5154357,107836,154553,5051
1572535743.5237212,107821,154566,5032
1572535743.531755,107849,154512,5001
1572535743.54012,107812,154502,5034
1572535743.5483208,107834,154575,5049
1572535743.5565212,107838,154534,5036
1572535743.5606034,107799,154570,5044
1572535743.5688975,107847,154536,5042
1572535743.577046,107828,154535,5072
1572535743.584484,107804,154496,5037
1572535743.5931876,107785,154415,5036
1572535743.6015697,107787,154373,5042
1572535743.6052165,107750,154349,4992
1572535743.6138427,107768,154282,5025
1572535743.6219027,107740,154221,5005
1572535743.6302352,107707,154200,5033
1572535743.6384158,107710,154145,5025
1572535743.6466174,107658,154147,5007
1572535743.650719,107726,154083,4981
1572535743.6583273,107708,154103,4999
1572535743.66725,107681,154062,5030
1572535743.6752653,107625,154023,5011
1572535743.6834643,107662,154088,4995
1572535743.6914701,107712,154058,4983
1572535743.6954808,107642,154108,5004
1572535743.7039351,107676,154093,4982
1572535743.71214,107701,154146,5001
1572535743.7203398,107677,154143,5007
1572535743.7287397,107696,154153,5013
1572535743.7369623,107713,154162,4998
1572535743.7448854,107679,154203,5017
1572535743.7531135,107728,154233,4953
1572535743.7572443,107718,154237,4990
1572535743.7648737,107767,154213,5006
1572535743.773559,107739,154226,4987
1572535743.781793,107710,154276,4998
1572535743.790205,107658,154247,4976
1572535743.7984028,107733,154244,4988
1572535743.8063328,107709,154265,5006
1572535743.8105,107757,154230,5021
1572535743.8186097,107692,154283,4987
1572535743.8268354,107681,154310,5019
1572535743.8349764,107676,154270,4975
1572535743.8430166,107727,154183,4995
1572535743.8510318,107726,154237,4989
1572535743.855509,107708,154194,5013
1572535743.8635995,107639,154202,5005
1572535743.8711662,107722,154245,5002
1572535743.879414,107693,154238,4961
1572535743.8882828,107707,154178,4993
1572535743.8964565,107674,154123,5001
1572535743.9006338,107673,154188,4994
1572535743.908699,107692,154146,4996
1572535743.9164898,107669,154179,5013
1572535743.9252987,107672,154167,4997
1572535743.9329183,107677,154170,4994
1572535743.9415994,107687,154144,4994
1572535743.945631,107692,154184,4975
1572535743.953727,107686,154138,4997
1572535743.9620295,107693,154183,4957
1572535743.9701643,107681,154186,4979
1572535743.9782016,107659,154200,4977
1572535743.986579,107666,154226,4959
1572535743.990649,107702,154225,4992
1572535743.9987457,107673,154227,4967
1572535744.006775,107685,154234,5017
1572535744.0151682,107670,154224,5005
1572535744.0234475,107694,154254,4992
1572535744.0316284,107685,154301,4998
1572535744.0357606,107710,154281,4991
1572535744.0433233,107669,154283,5010
1572535744.0516648,107662,154300,4988
1572535744.060032,107746,154305,4962
1572535744.0682952,107696,154322,5000
1572535744.0767004,107723,154320,4979
1572535744.0808003,107660,154263,4998
1572535744.0890238,107739,154344,4996
1572535744.0971735,107688,154327,4974
1572535744.1052797,107719,154299,5001
1572535744.1135483,107706,154253,5016
1572535744.121749,107696,154377,4991
1572535744.1252818,107725,154343,4996
1572535744.1340227,107682,154380,4996
1572535744.141921,107725,154348,4999
1572535744.1500087,107709,154369,5007
1572535744.158586,107723,154358,4968
1572535744.1667972,107709,154319,4991
1572535744.1709392,107681,154330,4991
1572535744.1793907,107714,154365,4983
1572535744.1872137,107715,154388,5020
1572535744.1954708,107718,154363,5024
1572535744.203219,107683,154373,4996
1572535744.2118702,107694,154354,5000
1572535744.2156956,107725,154371,5001
1572535744.224145,107667,154377,5036
1572535744.2322514,107681,154355,5023
1572535744.2405188,107719,154396,5054
1572535744.2486901,107665,154340,5008
1572535744.2568924,107711,154410,5014
1572535744.2604845,107714,154324,4997
1572535744.269433,107688,154401,5025
1572535744.2766232,107715,154406,4998
1572535744.2856936,107734,154383,5015
1572535744.2930012,107746,154428,5021
1572535744.302016,107733,154393,5005
1572535744.309994,107723,154382,4998
1572535744.314058,107754,154451,5049
1572535744.326512,107724,154462,4967
1572535744.3306403,107719,154465,4995
1572535744.3388064,107759,154471,5032
1572535744.3470147,107722,154463,5016
1572535744.3551512,107686,154509,5018
1572535744.3593147,107676,154484,5051
1572535744.3714926,107742,154469,4977
1572535744.3756888,107705,154444,5027
1572535744.3838346,107725,154368,5056
1572535744.392063,107701,154278,5015
1572535744.399717,107674,154329,5012
1572535744.4037898,107648,154248,5013
1572535744.4158692,107635,154177,4988
1572535744.4207368,107602,154118,5020
1572535744.4287627,107626,154046,5040
1572535744.437084,107598,154059,5009
1572535744.4450853,107563,154019,5011
1572535744.449238,107544,153989,4992
1572535744.46171,107582,153908,4963
1572535744.4652014,107576,153999,5024
1572535744.4742262,107606,153916,4978
1572535744.4821844,107511,153900,4972
1572535744.4902346,107605,153987,4977
1572535744.4942465,107568,153990,4965
1572535744.5062773,107579,153956,4982
1572535744.5102592,107616,154012,4959
1572535744.5192826,107595,154003,4929
1572535744.5272317,107577,154022,4970
1572535744.5352821,107614,154087,4985
1572535744.5392656,107592,154112,4975
1572535744.5513248,107616,154124,4993
1572535744.5554678,107582,154071,4951
1572535744.563518,107594,154159,5005
1572535744.5715392,107613,154113,4964
1572535744.5805633,107563,154166,4989
1572535744.5845737,107602,154164,4994
1572535744.5966048,107619,154185,4997
1572535744.6003873,107622,154159,4969
1572535744.6091547,107625,154162,4973
1572535744.61754,107601,154160,4989
1572535744.6255534,107635,154215,4964
1572535744.6296659,107615,154186,4975
1572535744.6418748,107605,154158,4946
1572535744.6460278,107587,154180,4953
1572535744.6537597,107614,154138,4989
1572535744.6620598,107576,154182,4982
1572535744.6699936,107570,154160,4978
1572535744.6787229,107555,154102,4992
1572535744.6862853,107607,154115,4993
1572535744.6909497,107546,154067,4971
1572535744.6992593,107585,154109,4978
1572535744.7074685,107559,154049,4963
1572535744.7156498,107601,154075,4986
1572535744.723986,107596,154092,4917
1572535744.732024,107575,154110,4942
1572535744.7402134,107598,154070,4985
1572535744.7443237,107574,154056,4959
1572535744.752469,107507,154117,4981
1572535744.7606475,107517,154112,4973
1572535744.7688441,107579,154052,4949
1572535744.7772646,107597,154130,4964
1572535744.785191,107620,154091,4978
1572535744.7893558,107527,154088,4957
1572535744.7974195,107586,154139,4971
1572535744.8057432,107629,154160,4958
1572535744.8139908,107601,154167,4992
1572535744.8217726,107589,154105,4937
1572535744.8303225,107603,154215,4988
1572535744.8337467,107602,154168,4972
1572535744.8419232,107587,154221,4962
1572535744.8507688,107593,154192,4982
1572535744.859782,107604,154232,4971
1572535744.8671942,107627,154229,4948
1572535744.8752193,107624,154185,4986
1572535744.8790946,107568,154238,4966
1572535744.8873475,107641,154276,4948
1572535744.8958676,107600,154271,4984
1572535744.904021,107629,154272,5010
1572535744.9121816,107579,154253,4968
1572535744.920483,107598,154242,4974
1572535744.9245844,107602,154265,4971
1572535744.9323108,107598,154290,5010
1572535744.9407156,107567,154246,4989
1572535744.9491282,107614,154287,5002
1572535744.9572098,107558,154227,4995
1572535744.965538,107617,154269,4977
1572535744.9696386,107621,154310,4984
1572535744.9777887,107607,154302,5015
1572535744.985984,107649,154287,4977
1572535744.9941072,107635,154288,4979
1572535745.002364,107630,154247,4993
1572535745.0105371,107621,154284,4997
1572535745.0145717,107637,154249,4999
1572535745.022837,107627,154283,5026
1572535745.0309858,107661,154284,4934
1572535745.038591,107616,154292,4997
1572535745.0474107,107636,154304,5007
1572535745.0556142,107616,154220,4976
1572535745.0596898,107595,154285,4990
1572535745.067516,107599,154302,5013
1572535745.0757391,107627,154333,4969
1572535745.0840545,107608,154353,4987
1572535745.092458,107644,154357,5014
1572535745.100619,107621,154318,4983
1572535745.104781,107629,154374,4995
1572535745.1129835,107587,154374,4985
1572535745.1211588,107628,154304,4982
1572535745.1290174,107652,154380,5019
1572535745.1372125,107665,154372,4997
1572535745.1450949,107584,154333,5004
1572535745.1500635,107644,154395,5009
1572535745.1580074,107649,154377,4987
1572535745.166207,107632,154269,5011
1572535745.1744068,107653,154302,4985
1572535745.1826408,107619,154247,4975
1572535745.1901538,107564,154157,5009
1572535745.198977,107591,154186,5017
1572535745.203017,107549,154126,5015
1572535745.211267,107540,154063,4987
1572535745.2190309,107521,153975,4999
1572535745.2278554,107530,154006,4987
1572535745.2358296,107547,153920,4978
1572535745.24403,107493,153930,4955
1572535745.2480974,107490,153898,4975
1572535745.260468,107508,153902,4985
1572535745.264516,107522,153897,4936
1572535745.2721329,107495,153868,4996
1572535745.2808788,107509,153898,4966
1572535745.2890759,107476,153942,4918
1572535745.29296,107490,153942,4975
1572535745.3054495,107502,153989,4950
1572535745.3093626,107494,153984,4960
1572535745.31773,107520,153967,4956
1572535745.3259752,107494,154015,4955
1572535745.334187,107498,154065,5013
1572535745.3382254,107516,154041,4979
1572535745.349979,107531,154054,4990
1572535745.35463,107498,154101,4958
1572535745.3627713,107544,154126,4960
1572535745.370919,107502,154112,4976
1572535745.3790634,107563,154115,4964
1572535745.387373,107569,154156,4932
1572535745.3955722,107536,154149,4975
1572535745.4000862,107563,154154,4982
1572535745.4078205,107540,154140,4953
1572535745.416047,107541,154159,4948
1572535745.4242496,107539,154171,4965
1572535745.432487,107557,154074,4974
1572535745.4405043,107546,154080,4966
1572535745.444726,107537,154087,4970
1572535745.4528937,107531,154110,4972
1572535745.4608903,107505,154114,4955
1572535745.469225,107520,154087,4968
1572535745.4772458,107528,154067,4947
1572535745.485267,107539,154096,4960
1572535745.4892783,107504,154018,4966
1572535745.4979694,107463,154036,4962
1572535745.5058446,107502,154031,4942
1572535745.5138943,107487,154048,4973
1572535745.5219152,107514,154033,4958
1572535745.5307426,107451,153956,4987
1572535745.5347815,107491,154039,4948
1572535745.5428383,107524,154004,4942
1572535745.550874,107507,154044,4979
1572535745.5593455,107513,154079,4933
1572535745.5668077,107508,154022,4928
1572535745.575448,107518,154101,4942
1572535745.5794692,107503,154022,4949
1572535745.5873592,107496,154108,4951
1572535745.596263,107470,154123,4953
1572535745.6044383,107505,154100,4940
1572535745.612638,107503,154128,4948
1572535745.6208386,107506,154095,4963
1572535745.624963,107480,154078,4958
1572535745.6332498,107535,154169,4972
1572535745.6412826,107522,154156,4962
1572535745.6495295,107539,154167,4956
1572535745.6572142,107506,154080,4922
1572535745.6659613,107541,154180,4968
1572535745.669987,107549,154179,4962
1572535745.6783986,107525,154203,4981
1572535745.6865087,107543,154226,4990
1572535745.6948013,107550,154212,4978
1572535745.7027335,107550,154194,4969
1572535745.71096,107546,154233,4980
1572535745.7150602,107545,154208,4983
1572535745.723237,107541,154253,4932
1572535745.73138,107575,154230,4983
1572535745.7397275,107562,154247,4991
1572535745.7477803,107574,154233,4975
1572535745.7558978,107536,154221,4971
1572535745.764037,107496,154199,4970
1572535745.7687294,107562,154259,4954
1572535745.7764528,107536,154271,4992
1572535745.7846866,107562,154248,4993
1572535745.7929242,107533,154254,4964
1572535745.8010688,107571,154264,4987
1572535745.8092535,107530,154271,4975
1572535745.8130527,107533,154278,4986
1572535745.8212342,107541,154260,4980
1572535745.8293674,107536,154284,4984
1572535745.8378754,107484,154193,5010
1572535745.8461301,107536,154268,4996
1572535745.854276,107510,154263,4988
1572535745.8584037,107556,154294,5026
1572535745.866576,107523,154283,4997
1572535745.8747807,107556,154254,5013
1572535745.8829513,107535,154271,4998
1572535745.891179,107568,154303,4976
1572535745.8993523,107532,154290,4981
1572535745.9034526,107507,154320,5028
1572535745.9157257,107591,154325,4973
1572535745.9192557,107560,154321,4975
1572535745.927999,107573,154307,5013
1572535745.9362264,107579,154275,4976
1572535745.944426,107580,154338,4981
1572535745.9485598,107533,154329,5004
1572535745.9606907,107585,154291,4972
1572535745.964795,107532,154234,4996
1572535745.9732773,107525,154124,4998
1572535745.9810297,107538,154154,4983
1572535745.9890862,107483,154073,4987
1572535745.9929342,107460,154002,4985
1572535746.0061104,107453,153942,4945
1572535746.0102518,107455,153905,4989
1572535746.0181265,107430,153804,4986
1572535746.0263214,107407,153804,4952
1572535746.0339775,107367,153871,4955
1572535746.0388398,107362,153817,4943
1572535746.050676,107414,153780,4946
1572535746.0545049,107407,153819,4966
1572535746.063197,107428,153808,4981
1572535746.0713694,107372,153782,4949
1572535746.0795407,107406,153874,4942
1572535746.0836964,107427,153869,4925
1572535746.0960503,107433,153875,4967
1572535746.1000712,107411,153855,4973
1572535746.1082702,107421,153932,4963
1572535746.1164494,107458,153950,4943
1572535746.124644,107426,153983,4939
1572535746.129013,107449,153955,4967
1572535746.1410015,107462,153986,4932
1572535746.145073,107472,153971,4924
1572535746.1527288,107464,154006,4952
1572535746.1615882,107433,153993,4957
1572535746.1690507,107456,154033,4946
1572535746.177836,107438,154066,4965
1572535746.1860435,107473,154062,4943
1572535746.1900535,107423,153986,4954
1572535746.1981828,107447,154078,4964
1572535746.2065365,107454,154000,4964
1572535746.2140338,107421,154070,4972
1572535746.2224052,107489,154066,4917
1572535746.2311397,107451,154053,4946
1572535746.2368279,107476,153959,4972
1572535746.243697,107452,154032,4956
1572535746.2518733,107396,154031,4940
1572535746.2597733,107418,154006,4950
1572535746.2676938,107451,153920,4969
1572535746.2761877,107438,153926,4928
1572535746.2840686,107436,153906,4952
1572535746.2886405,107391,153919,4951
1572535746.2966323,107470,153946,4958
1572535746.3041985,107403,153926,4951
1572535746.313007,107443,153956,4940
1572535746.3208928,107431,153895,4976
1572535746.3289948,107404,153983,4961
1572535746.3335366,107444,153920,4945
1572535746.3416505,107406,153956,4925
1572535746.3500853,107452,153948,4927
1572535746.3580985,107424,153975,4944
1572535746.3661628,107428,153995,4916
1572535746.3744292,107427,153973,4954
1572535746.3781688,107434,154032,4935
1572535746.3867087,107453,154036,4957
1572535746.3949194,107422,154022,4951
1572535746.4032426,107453,154037,4950
1572535746.4115417,107397,154032,4942
1572535746.4188108,107450,154061,4960
1572535746.4238431,107424,154033,4920
1572535746.4318047,107407,154110,4985
1572535746.4397995,107453,154122,4933
1572535746.4481773,107470,154084,4919
1572535746.456406,107460,154141,4962
1572535746.4644809,107478,154098,4970
1572535746.4684935,107454,154092,4954
1572535746.4769847,107455,154140,4946
1572535746.4849188,107487,154148,4923
1572535746.5014079,107440,154160,4949
1572535746.5097194,107418,154143,4972
1572535746.5180092,107454,154087,4960
1572535746.5219533,107473,154159,4972
1572535746.5301008,107474,154149,4967
1572535746.5383277,107434,154183,4980
1572535746.5460308,107457,154145,4966
1572535746.5549753,107469,154182,4925
1572535746.5630422,107476,154135,4978
1572535746.5671551,107467,154175,4972
1572535746.5749326,107495,154137,4959
1572535746.5833073,107456,154187,4932
1572535746.5915875,107488,154142,4962
1572535746.5997741,107474,154136,4963
1572535746.6078908,107490,154171,4947
1572535746.6116521,107462,154157,4978
1572535746.620249,107439,154158,4978
1572535746.6279843,107474,154176,4936
1572535746.6361902,107448,154167,4972
1572535746.6448004,107472,154185,4973
1572535746.6526027,107415,154202,4983
1572535746.6571019,107461,154201,4967
1572535746.6650426,107482,154220,4982
1572535746.673264,107443,154217,4988
1572535746.6814048,107472,154229,4973
1572535746.6896064,107492,154222,4967
1572535746.6977978,107439,154202,4992
1572535746.7021046,107485,154243,4973
1572535746.710288,107474,154247,4986
1572535746.7183893,107469,154263,5004
1572535746.726686,107487,154230,4970
1572535746.7351406,107475,154228,4987
1572535746.7431214,107509,154233,4985
1572535746.7511897,107471,154205,4978
1572535746.7552822,107410,154106,4973
1572535746.763263,107431,154081,5013
1572535746.7717383,107433,154014,4919
1572535746.779262,107391,153960,4962
1572535746.7875593,107398,153838,4965
1572535746.7963095,107386,153778,4954
1572535746.800467,107345,153805,4962
1572535746.808833,107322,153764,4961
1572535746.8163524,107365,153722,4936
1572535746.8249257,107298,153744,4962
1572535746.8332438,107339,153652,4966
1572535746.8415859,107331,153690,4944
1572535746.8449612,107311,153707,4936
1572535746.8533845,107265,153747,4923
1572535746.8619142,107345,153710,4913
1572535746.8701162,107320,153782,4932
1572535746.877697,107339,153767,4906
1572535746.8866212,107276,153731,4929
1572535746.890563,107378,153837,4931
1572535746.898735,107321,153858,4945
1572535746.9069314,107359,153860,4934
1572535746.91526,107357,153814,4924
1572535746.923337,107355,153915,4958
1572535746.9315367,107372,153853,4920
1572535746.935845,107374,153931,4895
1572535746.943754,107378,153913,4917
1572535746.9518216,107367,153897,4936
1572535746.9601831,107366,153956,4919
1572535746.9687288,107386,153942,4956
1572535746.9765851,107376,153954,4940
1572535746.9806702,107377,153951,4978
1572535746.9889076,107347,153945,4952
1572535746.997015,107368,153981,4966
1572535747.005009,107369,153971,4953
1572535747.0131629,107393,153931,4930
1572535747.0210853,107340,153889,4941
1572535747.025734,107340,153924,4994
1572535747.0380032,107390,153936,4911
1572535747.0421302,107322,153901,4946
1572535747.0503058,107353,153869,4967
1572535747.0579252,107321,153833,4939
1572535747.0667942,107314,153905,4915
1572535747.0710056,107283,153869,4914
1572535747.08305,107351,153781,4935
1572535747.0873473,107347,153806,4928
1572535747.0950968,107333,153802,4926
1572535747.103261,107303,153801,4917
1572535747.1115658,107324,153846,4952
1572535747.115853,107324,153846,4933
1572535747.128129,107344,153832,4916
1572535747.1322289,107349,153810,4918
1572535747.1404283,107339,153856,4960
1572535747.148601,107338,153848,4937
1572535747.1567817,107340,153896,4899
1572535747.1610408,107364,153883,4914
1572535747.1730938,107362,153901,4930
1572535747.1772485,107333,153942,4909
1572535747.185011,107331,153914,4932
1572535747.193329,107311,153934,4937
1572535747.2015007,107367,153972,4916
1572535747.205927,107355,153976,4932
1572535747.218569,107376,153987,4936
1572535747.2218826,107324,153985,4933
1572535747.230525,107397,153974,4944
1572535747.2386703,107336,154002,4939
1572535747.2468116,107369,154016,4926
1572535747.2550147,107392,154041,4939
1572535747.2629564,107374,154047,4953
1572535747.2716942,107335,154005,4975
1572535747.2756007,107347,154051,4939
1572535747.2832496,107388,154027,4946
1572535747.2920287,107414,154064,4984
1572535747.2993333,107361,154054,4957
1572535747.3085713,107393,154059,4966
1572535747.3165185,107354,154079,4939
1572535747.3207953,107402,154105,4936
1572535747.3286514,107367,154058,4958
1572535747.3369875,107336,154077,4957
1572535747.3449512,107400,154087,4921
1572535747.3534267,107385,154067,4933
1572535747.3611739,107416,154089,4974
1572535747.3653157,107381,154043,4943
1572535747.3734484,107339,154113,4945
1572535747.3820975,107359,154089,4974
1572535747.3896499,107384,154107,4924
1572535747.398468,107389,154105,4961
1572535747.4061732,107387,154095,4962
1572535747.4107428,107366,154069,4959
1572535747.4186144,107416,154105,4954
1572535747.426759,107362,154107,4964
1572535747.4351385,107419,154120,4927
1572535747.4432685,107383,154114,4963
1572535747.45184,107411,154082,4981
1572535747.4557972,107372,154095,4949
1572535747.4639895,107377,154163,4979
1572535747.47234,107375,154149,4970
1572535747.4797206,107409,154141,4929
1572535747.4886646,107397,154148,4977
1572535747.4967644,107405,154183,4966
1572535747.500889,107344,154120,4974
1572535747.5089471,107410,154133,4979
1572535747.5172126,107372,154097,4942
1572535747.5252028,107370,153997,4965
1572535747.533772,107344,153937,4957
1572535747.5418193,107353,153936,4964
1572535747.5457983,107313,153838,4960
1572535747.553862,107314,153843,4961
1572535747.562257,107285,153762,4947
1572535747.5704858,107269,153702,4946
1572535747.5787323,107259,153677,4949
1572535747.5870993,107246,153651,4966
1572535747.5909855,107279,153607,4940
1572535747.5987701,107239,153654,4893
1572535747.607173,107216,153665,4923
1572535747.6153803,107262,153615,4912
1572535747.6233516,107228,153622,4937
1572535747.6319313,107226,153630,4916
1572535747.6357868,107268,153660,4909
1572535747.6442337,107300,153721,4941
1572535747.6520069,107271,153691,4925
1572535747.6602802,107264,153724,4931
1572535747.668561,107288,153766,4927
1572535747.6768994,107284,153813,4926
1572535747.6810267,107284,153835,4920
1572535747.6891432,107226,153815,4905
1572535747.6973405,107309,153815,4917
1572535747.7053916,107288,153839,4896
1572535747.7138767,107340,153806,4934
1572535747.7220583,107234,153767,4936
1572535747.7302582,107291,153857,4922
1572535747.7343233,107292,153885,4934
1572535747.7428377,107319,153864,4928
1572535747.7503848,107270,153811,4937
1572535747.7584977,107294,153888,4928
1572535747.767106,107286,153875,4925
1572535747.774616,107266,153897,4949
1572535747.7793777,107285,153892,4915
1572535747.7916334,107298,153869,4933
1572535747.7957892,107308,153829,4955
1572535747.8039231,107313,153818,4910
1572535747.8117726,107296,153790,4923
1572535747.8199754,107272,153824,4870
1572535747.8240414,107294,153832,4894
1572535747.836591,107259,153788,4886
1572535747.8410566,107232,153783,4897
1572535747.849065,107264,153785,4927
1572535747.857133,107250,153774,4920
1572535747.865371,107230,153792,4935
1572535747.8696227,107213,153765,4929
1572535747.8817728,107259,153780,4948
1572535747.885883,107218,153723,4945
1572535747.8940108,107232,153731,4920
1572535747.9022207,107225,153751,4904
1572535747.9099946,107284,153785,4952
1572535747.9140446,107232,153774,4943
1572535747.9261973,107261,153802,4912
1572535747.9312105,107237,153814,4929
1572535747.9391353,107272,153828,4911
1572535747.947323,107255,153798,4904
1572535747.955521,107280,153875,4947
1572535747.963393,107343,153879,4904
1572535747.971636,107277,153852,4895
1572535747.9762414,107299,153882,4934
1572535747.984262,107312,153903,4936
1572535747.9924133,107295,153915,4933
1572535748.0005581,107270,153923,4948
1572535748.0084314,107331,153944,4894
1572535748.0171094,107281,153946,4937
1572535748.0203657,107348,153943,4936
1572535748.0291896,107296,153920,4933
1572535748.0373893,107310,153943,4934
1572535748.0455253,107268,153984,4934
1572535748.053451,107299,153999,4912
1572535748.0619807,107295,154004,4951
1572535748.0660486,107320,153949,4969
1572535748.0740414,107301,153926,4935
1572535748.0820942,107328,153950,4937
1572535748.090638,107235,153986,4952
1572535748.0988114,107320,153991,4915
1572535748.1070452,107285,154009,4967
1572535748.1110861,107311,153992,4970
1572535748.119481,107300,153937,4956
1572535748.1276524,107271,154018,4934
1572535748.135721,107241,154009,4947
1572535748.1437633,107312,154006,4903
1572535748.151745,107311,154007,4990
1572535748.1599414,107309,153997,4953
1572535748.1639807,107250,153927,4939
1572535748.1719882,107293,154013,4927
1572535748.1810417,107306,154025,4933
1572535748.189034,107328,153936,4958
1572535748.1970844,107324,154023,4940
1572535748.205077,107312,153992,4948
1572535748.209116,107257,153964,4957
1572535748.217126,107329,154034,4960
1572535748.225149,107300,154023,4955
1572535748.2341528,107306,154058,4952
1572535748.2417872,107306,154009,4959
1572535748.2497957,107306,154074,4937
1572535748.2548149,107340,154032,4955
1572535748.2628355,107317,154045,4924
1572535748.2708292,107298,154015,4966
1572535748.2789917,107305,153956,4941
1572535748.286985,107280,153933,4943
1572535748.2953193,107272,153858,4959
1572535748.2993298,107242,153837,4963
1572535748.3073533,107228,153755,4986
1572535748.3153715,107226,153690,4959
1572535748.3233643,107212,153678,4948
1572535748.3323882,107160,153606,4961
1572535748.3404377,107183,153567,4922
1572535748.3444483,107197,153591,4935
1572535748.3524752,107186,153593,4936
1572535748.360892,107215,153599,4883
1572535748.3689587,107175,153590,4923
1572535748.3769631,107184,153556,4955
1572535748.3850749,107169,153596,4908
1572535748.3899581,107153,153651,4941
1572535748.3973799,107158,153661,4919
1572535748.405953,107191,153606,4903
1572535748.414462,107183,153675,4919
1572535748.4224846,107206,153673,4911
1572535748.4307373,107189,153654,4918
1572535748.4347603,107247,153750,4922
1572535748.443129,107224,153763,4923
1572535748.4512367,107220,153768,4928
1572535748.4592586,107222,153715,4923
1572535748.4673102,107213,153820,4936
1572535748.475361,107252,153792,4913
1572535748.4793444,107231,153819,4904
1572535748.488121,107272,153835,4906
1572535748.496142,107246,153831,4902
1572535748.504163,107237,153890,4908
1572535748.5121841,107239,153852,4931
1572535748.520205,107188,153860,4919
1572535748.5242445,107222,153873,4905
1572535748.5332394,107250,153871,4939
1572535748.5412602,107236,153837,4938
1572535748.5492814,107221,153838,4919
1572535748.557332,107222,153813,4936
1572535748.565353,107173,153837,4934
1572535748.5693645,107194,153798,4901
1572535748.5783575,107193,153794,4932
1572535748.5859597,107201,153761,4954
1572535748.5939765,107147,153672,4926
1572535748.6020021,107192,153682,4928
1572535748.611029,107235,153677,4922
1572535748.6150587,107196,153760,4969
1572535748.6227927,107189,153716,4940
1572535748.6313152,107182,153734,4941
1572535748.6394885,107136,153676,4923
1572535748.647634,107189,153697,4919
1572535748.6558635,107218,153687,4925
1572535748.6640356,107178,153742,4944
1572535748.672185,107206,153752,4912
1572535748.680443,107184,153743,4935
1572535748.6845365,107196,153779,4933
1572535748.6926212,107223,153803,4912
1572535748.700897,107231,153781,4909
1572535748.7091599,107216,153830,4940
1572535748.7173407,107250,153826,4908
1572535748.7248023,107220,153839,4903
1572535748.7291694,107254,153890,4944
1572535748.7377803,107237,153789,4925
1572535748.7458212,107210,153886,4928
1572535748.753858,107208,153885,4958
1572535748.7623947,107261,153909,4908
1572535748.7703738,107226,153915,4960
1572535748.7746885,107256,153899,4976
1572535748.7828598,107243,153926,4932
1572535748.7910657,107216,153942,4964
1572535748.7988982,107210,153921,4937
1572535748.8075268,107239,153906,4951
1572535748.8156824,107247,153903,4961
1572535748.8197043,107257,153889,4934
1572535748.8279085,107198,153900,4937
1572535748.8361356,107251,153923,4934
1572535748.8443124,107231,153935,4926
1572535748.8525102,107255,153836,4945
1572535748.86071,107243,153934,4932
1572535748.8644218,107253,153892,4926
1572535748.8729827,107202,153873,4948
1572535748.8811958,107268,153927,4948
1572535748.8894374,107234,153929,4953
1572535748.897579,107258,153944,4993
1572535748.905678,107241,153849,4930
1572535748.9098482,107247,153956,4992
1572535748.9180362,107257,153942,4953
1572535748.9262307,107231,153959,4954
1572535748.9343774,107242,153932,4968
1572535748.9427195,107250,153971,4944
1572535748.9508455,107265,153974,4923
1572535748.9545627,107241,153912,4927
1572535748.9640903,107193,153980,4953
1572535748.971196,107235,153992,4967
1572535748.979426,107202,153937,4958
1572535748.9874604,107250,153914,4965
1572535748.9960933,107185,153845,4954
1572535748.9992902,107209,153760,4953
1572535749.00796,107164,153703,4956
1572535749.0162966,107153,153729,4983
1572535749.0244985,107156,153663,4913
1572535749.0326564,107124,153608,4933
1572535749.0410976,107196,153562,4935
1572535749.0451086,107097,153503,4913
1572535749.0532033,107074,153492,4898
1572535749.0613785,107044,153473,4908
1572535749.0695577,107124,153402,4898
1572535749.077823,107106,153437,4898
1572535749.085976,107098,153417,4899
1572535749.0900762,107064,153422,4907
1572535749.0982378,107107,153486,4899
1572535749.1064203,107070,153518,4908
1572535749.1146502,107114,153532,4915
1572535749.122823,107114,153502,4899
1572535749.1310241,107081,153559,4923
1572535749.1391964,107117,153543,4896
1572535749.1428208,107132,153584,4877
1572535749.151469,107135,153601,4912
1572535749.159698,107150,153609,4915
1572535749.1678436,107178,153645,4910
1572535749.1761005,107126,153637,4911
1572535749.184126,107121,153649,4903
1572535749.1883404,107142,153679,4898
1572535749.1964762,107116,153682,4910
1572535749.2047465,107167,153688,4930
1572535749.212892,107098,153657,4929
1572535749.221025,107133,153651,4896
1572535749.22932,107165,153666,4912
1572535749.2334201,107161,153712,4928
1572535749.2409701,107135,153703,4925
1572535749.2500746,107143,153663,4925
1572535749.2579644,107137,153664,4908
1572535749.26609,107150,153635,4906
1572535749.274095,107127,153610,4889
1572535749.2784967,107083,153650,4928
1572535749.2907412,107183,153640,4887
1572535749.294604,107128,153595,4884
1572535749.3030136,107122,153579,4912
1572535749.3112419,107145,153539,4904
1572535749.3193998,107071,153593,4902
1572535749.32344,107096,153575,4930
1572535749.335815,107150,153565,4863
1572535749.3394048,107100,153584,4880
1572535749.3479106,107150,153531,4907
1572535749.3561513,107129,153550,4910
1572535749.3644898,107123,153565,4900
1572535749.3685946,107089,153596,4915
1572535749.3808694,107137,153605,4851
1572535749.3850942,107106,153607,4897
1572535749.3928106,107130,153615,4915
1572535749.401362,107140,153600,4907
1572535749.4098053,107077,153640,4933
1572535749.4136446,107085,153633,4916
1572535749.4259408,107165,153675,4875
1572535749.4295766,107114,153654,4885
1572535749.4380283,107146,153598,4943
1572535749.4462848,107116,153672,4899
1572535749.454238,107119,153712,4904
1572535749.4584472,107095,153704,4907
1572535749.471062,107144,153700,4915
1572535749.4751039,107114,153732,4919
1572535749.4834971,107192,153678,4908
1572535749.4916418,107128,153699,4908
1572535749.4995282,107114,153748,4923
1572535749.503651,107075,153743,4907
1572535749.5160043,107155,153681,4903
1572535749.5199258,107154,153740,4905
1572535749.5283375,107168,153694,4921
1572535749.5364835,107115,153653,4914
1572535749.5447123,107167,153735,4944
1572535749.5528855,107128,153739,4943
1572535749.5610843,107152,153702,4917
1572535749.5645998,107152,153668,4916
1572535749.5733812,107150,153770,4945
1572535749.581532,107156,153743,4925
1572535749.5898097,107087,153746,4902
1572535749.5973885,107129,153718,4923
1572535749.6063406,107145,153761,4911
1572535749.6143308,107159,153738,4911
1572535749.6185467,107140,153714,4924
1572535749.626605,107153,153719,4926
1572535749.634947,107138,153766,4884
1572535749.6427772,107128,153772,4923
1572535749.6512077,107173,153779,4894
1572535749.6593828,107095,153751,4932
1572535749.6635096,107150,153741,4909
1572535749.6716533,107154,153752,4906
1572535749.6798818,107106,153810,4976
1572535749.6880512,107142,153789,4898
1572535749.696283,107147,153757,4889
1572535749.7039042,107140,153711,4946
1572535749.7085552,107125,153699,4926
1572535749.7167182,107107,153724,4935
1572535749.7251463,107037,153628,4926
1572535749.7330801,107104,153507,4899
1572535749.7413206,107094,153463,4939
1572535749.7495034,107055,153431,4913
1572535749.7536044,106985,153319,4900
1572535749.7616398,107012,153347,4921
1572535749.7700005,106996,153300,4890
1572535749.7774892,107007,153184,4899
1572535749.786377,106977,153185,4844
1572535749.7942247,106988,153250,4899
1572535749.7986789,106984,153204,4866
1572535749.8064556,106974,153232,4861
1572535749.8149965,106971,153236,4874
1572535749.823214,106992,153249,4858
1572535749.8314261,107031,153219,4891
1572535749.8395927,107020,153263,4857
1572535749.8438373,107022,153235,4860
1572535749.8516202,106981,153325,4836
1572535749.859612,107009,153314,4863
1572535749.8679464,107039,153331,4882
1572535749.8763952,107048,153340,4818
1572535749.884785,107045,153316,4884
1572535749.888839,107000,153317,4863
1572535749.8970203,107001,153385,4840
1572535749.9050863,107028,153365,4861
1572535749.9133878,107026,153383,4832
1572535749.921589,107050,153401,4854
1572535749.9298372,107045,153365,4874
1572535749.9336667,107047,153376,4866
1572535749.9420629,107056,153422,4827
1572535749.9495676,107053,153408,4843
1572535749.958462,107038,153391,4862
1572535749.966609,107037,153428,4856
1572535749.974836,107031,153370,4854
1572535749.9789512,107005,153364,4861
1572535749.9872425,107056,153405,4832
1572535749.9952636,107047,153372,4842
1572535750.003055,107014,153353,4866
1572535750.0115647,106991,153369,4817
1572535750.019809,107010,153291,4865
1572535750.027842,106987,153318,4852
1572535750.032184,107002,153311,4819
1572535750.0403364,107010,153287,4831
1572535750.0485597,107001,153261,4816
1572535750.0567057,107002,153310,4819
1572535750.0649529,106992,153224,4855
1572535750.0732107,106930,153257,4847
1572535750.0773451,106994,153283,4810
1572535750.0853837,106997,153273,4823
1572535750.0937083,106977,153284,4834
1572535750.1018267,106995,153318,4800
1572535750.1098866,106991,153299,4833
1572535750.1181805,106943,153292,4839
1572535750.1223927,107011,153329,4825
1572535750.1305244,107008,153352,4856
1572535750.138628,106995,153347,4862
1572535750.1461651,106965,153347,4841
1572535750.1550562,106979,153364,4852
1572535750.1632538,106992,153387,4836
1572535750.1665893,107008,153388,4870
1572535750.1749823,107033,153381,4859
1572535750.183728,107017,153388,4885
1572535750.1918952,107004,153403,4849
1572535750.199875,107039,153401,4837
1572535750.208081,107007,153433,4853
1572535750.2119985,107031,153439,4887
1572535750.2246804,107044,153442,4822
1572535750.2288256,107021,153475,4817
1572535750.2369175,107025,153424,4904
1572535750.2451549,107046,153444,4846
1572535750.2532823,106988,153490,4885
1572535750.2574496,107007,153468,4865
1572535750.269824,107059,153428,4834
1572535750.2738085,107028,153469,4858
1572535750.2819812,107062,153435,4856
1572535750.2901564,106975,153403,4858
1572535750.298357,107074,153508,4885
1572535750.30246,107060,153496,4837
1572535750.3152845,107047,153486,4874
1572535750.3187063,107028,153428,4836
1572535750.32703,107045,153500,4906
1572535750.3352256,107062,153466,4863
1572535750.34343,107025,153511,4851
1572535750.3475296,107054,153483,4868
1572535750.359568,107053,153523,4925
1572535750.3639095,107051,153532,4830
1572535750.3720038,107043,153478,4888
1572535750.3802512,107007,153488,4876
1572535750.3884792,107078,153539,4830
1572535750.392708,107077,153555,4857
1572535750.4044528,107071,153497,4916
1572535750.408292,107033,153526,4847
1572535750.4173348,107037,153508,4868
1572535750.4252813,107014,153476,4873
1572535750.4334948,107034,153430,4869
1572535750.44167,106963,153402,4871
1572535750.4493976,106991,153326,4863
1572535750.4534378,106933,153246,4856
1572535750.4621978,106952,153160,4838
1572535750.4703453,106966,153143,4828
1572535750.4786224,106922,153097,4864
1572535750.4867725,106858,153052,4844
1572535750.4945803,106920,153027,4864
1572535750.5031252,106849,152950,4842
1572535750.5072517,106889,152985,4815
1572535750.5153484,106903,153000,4804
1572535750.523772,106895,152975,4836
1572535750.531782,106880,152979,4819
1572535750.539864,106915,153008,4807
1572535750.5481954,106870,152952,4844
1572535750.5523214,106896,153051,4795
1572535750.560468,106901,153064,4791
1572535750.568696,106915,153080,4837
1572535750.5768392,106906,153078,4803
1572535750.585087,106928,153077,4818
1572535750.592766,106925,153110,4822
1572535750.5973752,106933,153098,4794
1572535750.6057653,106881,153137,4820
1572535750.6133294,106900,153155,4837
1572535750.6215405,106960,153160,4781
1572535750.6297777,106923,153152,4806
1572535750.6378927,106934,153176,4801
1572535750.6427295,106931,153184,4810
1572535750.6506085,106966,153176,4804
1572535750.658793,106906,153207,4808
1572535750.667025,106977,153205,4789
1572535750.6753964,106938,153223,4800
1572535750.6826682,106944,153153,4827
1572535750.6875675,106940,153171,4803
1572535750.695562,106908,153181,4822
1572535750.7038403,106909,153177,4801
1572535750.7114494,106951,153171,4789
1572535750.720236,106917,153138,4811
1572535750.7286592,106967,153073,4832
1572535750.7325056,106903,153073,4811
1572535750.7408087,106878,153119,4788
1572535750.748838,106871,153086,4818
1572535750.7569175,106919,153029,4775
1572535750.7652895,106903,153081,4811
1572535750.773488,106923,153066,4821
1572535750.777589,106834,153024,4807
1572535750.7852986,106897,153046,4805
1572535750.7938118,106872,153070,4786
1572535750.8020554,106909,153086,4830
1572535750.8103335,106883,153011,4780
1572535750.8183362,106903,153102,4823
1572535750.8224142,106915,153072,4815
1572535750.8308358,106879,153090,4801
1572535750.838982,106881,153087,4807
1572535750.847213,106900,153128,4793
1572535750.8549562,106899,153102,4798
1572535750.8635912,106901,153128,4824
1572535750.8716264,106897,153120,4805
1572535750.8758843,106927,153155,4776
1572535750.883588,106918,153174,4790
1572535750.8919766,106922,153137,4777
1572535750.9004283,106928,153206,4776
1572535750.9086585,106941,153157,4825
1572535750.9167376,106881,153175,4808
1572535750.920932,106926,153217,4788
1572535750.9291027,106936,153237,4814
1572535750.9372146,106933,153218,4773
1572535750.9448168,106915,153202,4791
1572535750.953752,106936,153199,4818
1572535750.961857,106925,153230,4808
1572535750.965976,106924,153250,4813
1572535750.9741526,106925,153276,4823
1572535750.982243,106950,153276,4832
1572535750.9901264,106889,153207,4833
1572535750.9989815,106922,153253,4820
1572535751.0068636,106948,153270,4833
1572535751.0112298,106894,153278,4823
1572535751.018834,106951,153254,4844
1572535751.0274298,106941,153261,4843
1572535751.035601,106898,153189,4826
1572535751.043809,106937,153249,4822
1572535751.0519695,106943,153277,4814
1572535751.0561056,106894,153295,4858
1572535751.0643036,106921,153280,4831
1572535751.0727272,106944,153307,4854
1572535751.080676,106906,153257,4826
1572535751.0885205,106962,153313,4826
1572535751.0970411,106975,153283,4832
1572535751.1008065,106921,153319,4862
1572535751.1093545,106932,153300,4853
1572535751.1170928,106961,153290,4846
1572535751.1257606,106937,153304,4844
1572535751.1340518,106942,153314,4853
1572535751.1422281,106920,153296,4819
1572535751.1462228,106894,153252,4864
1572535751.1585498,106954,153204,4796
1572535751.1625974,106921,153143,4788
1572535751.1707973,106927,153079,4815
1572535751.1789694,106887,152975,4819
1572535751.1871417,106854,152924,4814
1572535751.1911168,106832,152939,4843
1572535751.2035706,106849,152886,4793
1572535751.2071543,106823,152849,4814
1572535751.2153742,106848,152753,4811
1572535751.2239819,106792,152771,4794
1572535751.2322404,106788,152850,4806
1572535751.2403877,106733,152793,4781
1572535751.2486155,106799,152799,4753
1572535751.256786,106815,152803,4793
1572535751.2609158,106821,152825,4788
1572535751.2690468,106744,152753,4765
1572535751.2772894,106831,152868,4795
1572535751.285586,106834,152888,4753
1572535751.2937355,106814,152822,4755
1572535751.3019395,106817,152835,4798
1572535751.3059626,106813,152915,4835
1572535751.3142152,106851,152914,4781
1572535751.3217099,106808,152948,4763
1572535751.330484,106803,152933,4793
1572535751.3386133,106848,152966,4785
1572535751.3468893,106846,152933,4755
1572535751.3508992,106864,152960,4816
1572535751.3589633,106861,152979,4804
1572535751.3673124,106829,153012,4737
1572535751.3757136,106875,153024,4778
1572535751.383964,106850,153008,4773
1572535751.3919592,106837,153045,4776
1572535751.3960605,106879,152992,4797
1572535751.4036677,106799,153017,4796
1572535751.4124584,106849,153003,4768
1572535751.4206033,106833,153004,4793
1572535751.4288116,106847,152974,4796
1572535751.4368453,106820,152967,4780
1572535751.440774,106864,152935,4793
1572535751.449306,106796,152934,4787
1572535751.457329,106805,152928,4799
1572535751.4655879,106843,152900,4789
1572535751.4736383,106835,152897,4811
1572535751.4816597,106781,152850,4793
1572535751.4856427,106811,152889,4778
1572535751.493691,106832,152869,4758
1572535751.5027328,106821,152897,4814
1572535751.5107276,106810,152896,4775
1572535751.5187852,106829,152864,4750
1572535751.527129,106836,152884,4784
1572535751.5312274,106842,152855,4781
1572535751.539393,106822,152943,4794
1572535751.54758,106808,152917,4764
1572535751.5556307,106858,152946,4766
1572535751.5639763,106843,152974,4788
1572535751.572155,106864,152932,4797
1572535751.576277,106814,152908,4778
1572535751.5844772,106819,153037,4770
1572535751.5926912,106823,152989,4786
1572535751.6008523,106854,152933,4805
1572535751.6090002,106871,153007,4773
1572535751.61725,106853,152991,4793
1572535751.6213872,106819,152964,4800
1572535751.629589,106870,153043,4795
1572535751.6376963,106844,153058,4789
1572535751.6459277,106862,153062,4808
1572535751.653477,106846,152999,4808
1572535751.6622987,106883,153098,4797
1572535751.666398,106876,153049,4794
1572535751.6781235,106843,153075,4786
1572535751.682743,106853,153055,4808
1572535751.6912286,106872,153060,4788
1572535751.6991,106875,153080,4773
1572535751.7073174,106877,153044,4800
1572535751.7155194,106822,153064,4801
1572535751.7196474,106825,153107,4774
1572535751.7278495,106893,153102,4791
1572535751.736277,106877,153081,4817
1572535751.7435253,106856,153097,4784
1572535751.7524195,106890,153110,4817
1572535751.7604795,106869,153109,4799
1572535751.76454,106898,153103,4799
1572535751.772429,106873,153123,4818
1572535751.7809334,106885,153135,4817
1572535751.7888887,106829,153039,4842
1572535751.7974687,106870,153119,4810
1572535751.805644,106872,153154,4816
1572535751.8097825,106832,153115,4826
1572535751.8179116,106862,153100,4833
1572535751.826137,106876,153133,4816
1572535751.8342683,106832,153063,4833
1572535751.8422139,106869,153074,4814
1572535751.850475,106888,153083,4791
1572535751.8548155,106824,153044,4845
1572535751.86709,106854,153001,4797
1572535751.8706803,106827,152935,4775
1572535751.878958,106862,152872,4810
1572535751.8872514,106803,152799,4783
1572535751.8957763,106805,152784,4788
1572535751.8992288,106750,152718,4797
1572535751.9118721,106793,152693,4759
1572535751.9162385,106719,152666,4773
1572535751.9244041,106747,152582,4802
1572535751.9326148,106700,152567,4746
1572535751.940487,106729,152622,4733
1572535751.94478,106714,152620,4760
1572535751.9572165,106750,152544,4779
1572535751.9613123,106772,152594,4749
1572535751.9694853,106749,152577,4714
1572535751.9772246,106734,152598,4748
1572535751.9855087,106764,152689,4760
1572535751.9892373,106744,152701,4756
1572535752.0023713,106751,152715,4747
1572535752.00614,106756,152670,4768
1572535752.0145748,106738,152730,4784
1572535752.02266,106759,152700,4770
1572535752.0308895,106755,152768,4736
1572535752.0348878,106794,152766,4748
1572535752.0475173,106774,152779,4735
1572535752.05145,106773,152824,4749
1572535752.0595787,106776,152782,4762
1572535752.0678203,106736,152828,4746
1572535752.0760117,106819,152839,4768
1572535752.0800824,106725,152809,4764
1572535752.0920868,106814,152863,4776
1572535752.0961542,106709,152751,4781
1572535752.1047053,106773,152826,4753
1572535752.112323,106741,152777,4761
1572535752.1208637,106769,152791,4782
1572535752.1294458,106799,152797,4736
1572535752.1374393,106746,152763,4723
1572535752.1415293,106750,152822,4760
1572535752.1497035,106767,152713,4761
1572535752.1578496,106758,152795,4756
1572535752.166104,106732,152703,4747
1572535752.1742072,106759,152729,4736
1572535752.1824784,106760,152702,4763
1572535752.1901271,106769,152629,4775
1572535752.1947224,106738,152696,4747
1572535752.2021468,106708,152753,4760
1572535752.2111511,106697,152722,4765
1572535752.2192552,106749,152686,4713
1572535752.227526,106731,152698,4763
1572535752.2356663,106786,152740,4734
1572535752.2395103,106710,152699,4761
1572535752.247971,106740,152758,4731
1572535752.2561142,106720,152756,4743
1572535752.2643447,106766,152713,4726
1572535752.2726128,106748,152784,4774
1572535752.2807724,106777,152750,4746
1572535752.2848744,106721,152724,4756
1572535752.2926924,106788,152799,4760
1572535752.3012738,106766,152826,4751
1572535752.3094203,106771,152771,4748
1572535752.3176968,106754,152804,4756
1572535752.3258386,106783,152813,4764
1572535752.3299215,106772,152824,4764
1572535752.338092,106777,152866,4764
1572535752.3462665,106786,152885,4785
1572535752.3542204,106794,152899,4797
1572535752.3626614,106782,152830,4785
1572535752.3708959,106788,152924,4770
1572535752.37482,106810,152883,4758
1572535752.3831801,106789,152919,4743
1572535752.3909192,106776,152913,4770
1572535752.3991575,106782,152903,4755
1572535752.40748,106806,152880,4773
1572535752.415943,106812,152892,4800
1572535752.420046,106796,152869,4766
1572535752.4278271,106759,152931,4756
1572535752.4363627,106794,152891,4750
1572535752.4447365,106815,152902,4770
1572535752.452797,106778,152945,4757
1572535752.460708,106799,152900,4775
1572535752.4647195,106727,152913,4771
1572535752.472784,106779,152933,4785
1572535752.481436,106757,152932,4785
1572535752.4896379,106784,152957,4788
1572535752.4978092,106720,152898,4796
1572535752.5060494,106803,152961,4776
1572535752.5101402,106772,152908,4795
1572535752.518339,106831,152966,4805
1572535752.525933,106835,152992,4752
1572535752.5347981,106797,152990,4787
1572535752.5429864,106848,152948,4825
1572535752.5511127,106806,152946,4778
1572535752.555218,106795,152998,4802
1572535752.5633874,106756,152999,4792
1572535752.5716531,106805,152971,4775
1572535752.5798278,106805,152970,4820
1572535752.5879734,106819,152944,4775
1572535752.595955,106745,152851,4794
1572535752.604373,106762,152827,4803
1572535752.608502,106757,152786,4773
1572535752.6167254,106758,152638,4808
1572535752.6244173,106692,152581,4747
1572535752.6327348,106689,152550,4762
1572535752.6411414,106706,152513,4754
1572535752.649422,106633,152479,4763
1572535752.6535509,106654,152448,4748
1572535752.6657956,106680,152432,4729
1572535752.6699378,106677,152377,4748
1572535752.6780827,106643,152382,4757
1572535752.6856065,106666,152376,4736
1572535752.694645,106642,152424,4688
1572535752.6987424,106655,152422,4724
1572535752.7108698,106676,152430,4736
1572535752.7149835,106639,152440,4703
1572535752.7227368,106644,152413,4715
1572535752.7312822,106691,152451,4711
1572535752.739407,106640,152502,4764
1572535752.7437613,106664,152489,4733
1572535752.7558804,106677,152498,4719
1572535752.7599995,106672,152485,4734
1572535752.7681913,106682,152553,4732
1572535752.7763789,106727,152572,4719
1572535752.784581,106714,152540,4746
1572535752.792465,106704,152572,4696
1572535752.8009517,106672,152569,4701
1572535752.8050578,106691,152559,4728
1572535752.8132038,106699,152585,4727
1572535752.8206372,106673,152608,4740
1572535752.8289673,106626,152586,4737
1572535752.8379915,106686,152592,4719
1572535752.8456306,106696,152584,4726
1572535752.849652,106698,152558,4728
1572535752.858573,106643,152497,4727
1572535752.8660886,106663,152570,4720
1572535752.8745413,106673,152563,4702
1572535752.8828754,106690,152474,4733
1572535752.8911011,106672,152508,4725
1572535752.8953042,106673,152462,4727
1572535752.903346,106620,152448,4715
1572535752.9114797,106713,152507,4738
1572535752.9196346,106647,152482,4710
1572535752.9278617,106661,152467,4736
1572535752.9358006,106647,152391,4746
1572535752.9401038,106642,152495,4723
1572535752.9483962,106674,152440,4702
1572535752.9565694,106621,152482,4736
1572535752.96473,106659,152475,4702
1572535752.9728446,106670,152491,4708
1572535752.9811707,106672,152459,4724
1572535752.9852715,106648,152508,4732
1572535752.9930665,106673,152473,4712
1572535753.0018916,106640,152532,4689
1572535753.0097902,106681,152518,4731
1572535753.0179832,106682,152529,4713
1572535753.0262442,106691,152558,4699
1572535753.0301244,106692,152535,4728
1572535753.0412166,106694,152543,4719
1572535753.0466661,106715,152586,4685
1572535753.054933,106693,152580,4715
1572535753.0631492,106692,152596,4719
1572535753.0713308,106689,152629,4695
1572535753.0753925,106698,152610,4722
1572535753.0835667,106636,152591,4728
1572535753.0915744,106680,152656,4698
1572535753.0999122,106712,152648,4726
1572535753.108012,106725,152640,4738
1572535753.1163404,106672,152607,4759
1572535753.1245708,106693,152652,4746
1572535753.1287243,106724,152647,4706
1572535753.1360557,106711,152685,4783
1572535753.1449592,106718,152676,4744
1572535753.1531303,106726,152692,4767
1572535753.1613941,106647,152604,4734
1572535753.1695585,106711,152649,4738
1572535753.173568,106743,152705,4716
1572535753.1813295,106726,152714,4777
1572535753.1894207,106730,152686,4727
1572535753.1982074,106715,152665,4719
1572535753.206421,106723,152701,4745
1572535753.2146597,106731,152640,4731
1572535753.2191222,106691,152658,4722
1572535753.2270558,106692,152712,4753
1572535753.2350783,106767,152733,4710
1572535753.2430282,106732,152731,4723
1572535753.2510488,106759,152665,4743
1572535753.2590387,106741,152741,4747
1572535753.2640574,106718,152738,4758
1572535753.2720733,106695,152739,4738
1572535753.2800686,106743,152722,4699
1572535753.288089,106757,152757,4759
1572535753.2967007,106744,152718,4749
1572535753.3047578,106704,152689,4762
1572535753.308795,106781,152785,4759
1572535753.3168633,106728,152787,4732
1572535753.325205,106759,152749,4786
1572535753.333131,106693,152657,4743
1572535753.3415039,106737,152725,4762
1572535753.3499036,106712,152655,4753
1572535753.353906,106680,152635,4731
1572535753.3620837,106656,152553,4745
1572535753.369946,106692,152510,4715
1572535753.3782377,106668,152421,4716
1572535753.3866649,106644,152361,4771
1572535753.3948553,106636,152308,4731
1572535753.3989544,106591,152284,4677
1572535753.4071221,106584,152272,4710
1572535753.4153533,106596,152212,4688
1572535753.42353,106585,152208,4691
1572535753.431612,106613,152204,4696
1572535753.4399824,106573,152208,4688
1572535753.4441106,106587,152216,4729
1572535753.4523704,106592,152181,4707
1572535753.4603612,106607,152248,4692
1572535753.4682739,106540,152210,4694
1572535753.4767563,106606,152294,4688
1572535753.484977,106595,152246,4674
1572535753.489335,106598,152311,4716
1572535753.501351,106613,152346,4651
1572535753.5054238,106613,152308,4672
1572535753.5134315,106628,152331,4698
1572535753.5217996,106632,152314,4698
1572535753.5299578,106644,152395,4685
1572535753.5381956,106629,152363,4723
1572535753.5457351,106647,152380,4646
1572535753.5539854,106618,152401,4668
1572535753.558462,106639,152357,4680
1572535753.5668426,106639,152366,4682
1572535753.5751085,106620,152407,4680
1572535753.5833106,106593,152435,4689
1572535753.5907407,106661,152428,4660
1572535753.5996876,106630,152416,4706
1572535753.603787,106644,152387,4716
1572535753.6119328,106634,152344,4696
1572535753.6200905,106602,152407,4686
1572535753.628185,106580,152373,4687
1572535753.636343,106625,152304,4655
1572535753.6442978,106612,152336,4690
1572535753.6485868,106652,152294,4710
1572535753.65705,106567,152281,4683
1572535753.6651833,106614,152326,4674
1572535753.6732035,106563,152311,4676
1572535753.681224,106606,152229,4670
1572535753.689102,106603,152298,4702
1572535753.694116,106611,152305,4690
1572535753.7020166,106549,152265,4684
1572535753.710242,106628,152332,4698
1572535753.7180178,106601,152328,4665
1572535753.72629,106608,152244,4699
1572535753.734098,106585,152276,4684
1572535753.7392263,106623,152363,4677
1572535753.7473917,106615,152328,4673
1572535753.7552896,106620,152380,4701
1572535753.7636168,106589,152372,4691
1572535753.7716892,106617,152422,4715
1572535753.779889,106628,152367,4719
1572535753.7842731,106617,152423,4707
1572535753.7919035,106652,152410,4686
1572535753.8001308,106623,152449,4644
1572535753.8085084,106630,152458,4664
1572535753.816575,106629,152452,4686
1572535753.8242667,106638,152486,4662
1572535753.8290863,106660,152470,4697
1572535753.837083,106612,152488,4689
1572535753.845454,106687,152514,4716
1572535753.8536313,106618,152486,4701
1572535753.8620596,106654,152526,4695
1572535753.8700569,106594,152460,4705
1572535753.8736346,106649,152538,4704
1572535753.8823917,106675,152475,4710
1572535753.890473,106628,152538,4711
1572535753.898656,106693,152540,4672
1572535753.9069407,106657,152543,4691
1572535753.9151025,106693,152534,4729
1572535753.9193823,106658,152517,4707
1572535753.927405,106641,152552,4708
1572535753.9355252,106611,152568,4725
1572535753.943807,106667,152466,4735
1572535753.9519827,106682,152528,4750
1572535753.9601028,106662,152520,4711
1572535753.9642477,106644,152535,4726
1572535753.9724221,106649,152559,4742
1572535753.9804764,106658,152563,4713
1572535753.988761,106688,152594,4714
1572535753.9965987,106696,152579,4722
1572535754.0049603,106679,152525,4740
1572535754.009063,106667,152570,4731
1572535754.0174298,106649,152611,4694
1572535754.025621,106670,152629,4738
1572535754.033474,106689,152614,4724
1572535754.0421178,106608,152613,4744
1572535754.049723,106680,152622,4730
1572535754.058349,106672,152629,4707
1572535754.06222,106655,152671,4767
1572535754.0747852,106715,152667,4720
1572535754.0788817,106711,152665,4756
1572535754.0870254,106706,152629,4739
1572535754.0952766,106705,152609,4728
1572535754.1032283,106679,152582,4724
1572535754.1075506,106666,152595,4749
1572535754.119798,106690,152565,4701
1572535754.1239374,106629,152494,4749
1572535754.1314635,106642,152367,4736
1572535754.1403246,106619,152334,4727
1572535754.148498,106567,152304,4715
1572535754.1522617,106562,152262,4713
1572535754.164873,106597,152143,4692
1572535754.168902,106565,152175,4705
1572535754.177276,106548,152099,4699
1572535754.1849906,106529,152101,4708
1572535754.1929953,106593,152162,4701
1572535754.1976473,106531,152151,4673
1572535754.2099457,106552,152141,4711
1572535754.2140467,106551,152118,4707
1572535754.2219741,106532,152220,4682
1572535754.2304213,106565,152165,4692
1572535754.2386205,106553,152201,4650
1572535754.2421372,106595,152214,4664
1572535754.2543843,106580,152220,4681
1572535754.2584274,106579,152268,4651
1572535754.2672627,106598,152224,4682
1572535754.2748513,106567,152274,4686
1572535754.283669,106575,152295,4661
1572535754.2873836,106579,152308,4689
1572535754.3000433,106600,152323,4681
1572535754.3041434,106574,152336,4675
1572535754.3123176,106585,152326,4686
1572535754.3206835,106566,152355,4674
1572535754.3287547,106576,152364,4698
1572535754.3329537,106643,152358,4711
1572535754.3447163,106618,152401,4729
1572535754.3493907,106571,152335,4697
1572535754.357525,106622,152329,4697
1572535754.3655772,106615,152362,4682
1572535754.3735912,106645,152373,4699
1572535754.3813853,106605,152376,4672
1572535754.3901644,106594,152368,4671
1572535754.3942645,106622,152368,4710
1572535754.402453,106587,152291,4689
1572535754.410636,106587,152320,4692
1572535754.4183807,106537,152312,4698
1572535754.426794,106598,152306,4657
1572535754.4352129,106571,152307,4690
1572535754.4393127,106606,152263,4703
1572535754.4475129,106583,152279,4698
1572535754.4556181,106559,152326,4702
1572535754.4633741,106551,152289,4693
1572535754.4720602,106583,152250,4646
1572535754.4802885,106586,152302,4716
1572535754.4844217,106607,152271,4709
1572535754.492684,106536,152266,4684
1572535754.5006685,106592,152343,4664
1572535754.5089018,106557,152338,4683
1572535754.516786,106595,152269,4710
1572535754.5247087,106622,152293,4729
1572535754.5334857,106621,152313,4711
1572535754.537014,106584,152375,4698
1572535754.5460062,106609,152387,4697
1572535754.5539532,106579,152413,4692
1572535754.5623848,106625,152434,4718
1572535754.5701227,106615,152405,4701
1572535754.578604,106626,152441,4726
1572535754.5826514,106627,152426,4709
1572535754.590798,106615,152455,4675
1572535754.5990047,106603,152477,4690
1572535754.606816,106611,152462,4703
1572535754.6150818,106607,152493,4674
1572535754.6235971,106624,152465,4700
1572535754.627742,106654,152460,4690
1572535754.6360652,106619,152504,4733
1572535754.6436627,106650,152496,4705
1572535754.6522505,106635,152497,4693
1572535754.6605372,106658,152492,4683
1572535754.668492,106641,152527,4723
1572535754.6727788,106615,152544,4713
1572535754.6809316,106603,152528,4716
1572535754.688907,106649,152507,4675
1572535754.6972942,106645,152544,4724
1572535754.7052448,106639,152496,4720
1572535754.7137375,106607,152467,4707
1572535754.7172563,106687,152572,4738
1572535754.7254572,106629,152536,4715
1572535754.734226,106650,152555,4735
1572535754.7423337,106643,152520,4707
1572535754.7504017,106644,152540,4753
1572535754.7584994,106685,152551,4725
1572535754.7625978,106645,152596,4681
1572535754.7710853,106668,152582,4706
1572535754.779267,106667,152600,4736
1572535754.786866,106655,152617,4705
1572535754.7956507,106647,152585,4734
1572535754.8038533,106723,152621,4728
1572535754.80799,106659,152631,4758
1572535754.820125,106668,152639,4714
1572535754.8242333,106666,152611,4686
1572535754.8323426,106700,152642,4744
1572535754.8407216,106700,152563,4734
1572535754.848305,106626,152544,4737
1572535754.852316,106592,152479,4712
1572535754.872779,106640,152423,4739
1572535754.877841,106604,152336,4732
1572535754.8858047,106578,152257,4740
1572535754.8935373,106589,152241,4687
1572535754.9021454,106565,152137,4726
1572535754.905903,106505,152189,4684
1572535754.9140832,106536,152195,4672
1572535754.922224,106569,152184,4696
1572535754.9308162,106548,152159,4703
1572535754.93923,106497,152154,4696
1572535754.9465384,106529,152164,4683
1572535754.9512863,106540,152197,4657
1572535754.9595075,106545,152226,4704
1572535754.9676373,106570,152258,4665
1572535754.9752824,106591,152263,4668
1572535754.9840355,106578,152260,4678
1572535754.9918656,106577,152277,4677
1572535754.9963665,106573,152347,4710
1572535755.0046282,106554,152348,4678
1572535755.0126212,106602,152368,4666
1572535755.020574,106594,152379,4731
1572535755.0291133,106608,152338,4721
1572535755.0372834,106554,152351,4698
1572535755.0407436,106609,152424,4677
1572535755.0498676,106616,152459,4675
1572535755.0577884,106624,152457,4748
1572535755.0658178,106607,152386,4693
1572535755.073794,106631,152498,4713
1572535755.0823627,106627,152465,4694
1572535755.0864618,106568,152480,4693
1572535755.0948024,106617,152436,4715
1572535755.1029449,106631,152457,4705
1572535755.1110756,106634,152433,4681
1572535755.119207,106604,152387,4719
1572535755.127408,106579,152390,4698
1572535755.1315765,106639,152404,4682
1572535755.1395953,106599,152407,4703
1572535755.1479144,106597,152385,4736
1572535755.15618,106536,152317,4727
1572535755.1641726,106586,152364,4708
1572535755.1724834,106580,152353,4696
1572535755.1765828,106593,152353,4738
1572535755.1884131,106616,152372,4695
1572535755.1925526,106598,152347,4696
1572535755.2011578,106648,152394,4717
1572535755.2088554,106583,152391,4694
1572535755.2175815,106617,152371,4707
1572535755.2249968,106571,152381,4722
1572535755.233348,106621,152426,4675
1572535755.2417715,106589,152429,4710
1572535755.2458904,106659,152420,4736
1572535755.2539616,106615,152430,4703
1572535755.2626045,106609,152454,4710
1572535755.270202,106570,152476,4699
1572535755.2789793,106630,152472,4698
1572535755.287151,106615,152523,4711
1572535755.2912815,106637,152490,4738
1572535755.2988958,106631,152522,4698
1572535755.3076532,106595,152577,4729
1572535755.31606,106588,152561,4710
1572535755.3236203,106649,152553,4726
1572535755.3322012,106635,152573,4725
1572535755.3356652,106644,152572,4744
1572535755.3445349,106606,152553,4714
1572535755.3523338,106622,152613,4708
1572535755.3610415,106640,152616,4720
1572535755.3683596,106667,152538,4713
1572535755.377443,106652,152599,4707
1572535755.3814964,106658,152563,4738
1572535755.3894243,106609,152530,4735
1572535755.3977416,106664,152650,4736
1572535755.4059494,106658,152633,4702
1572535755.4137778,106664,152577,4758
1572535755.4218755,106652,152554,4720
1572535755.4264536,106669,152649,4733
1572535755.4346523,106678,152606,4716
1572535755.4425533,106639,152675,4743
1572535755.4509428,106656,152633,4740
1572535755.4589672,106672,152669,4720
1572535755.4673975,106682,152618,4776
1572535755.4711454,106646,152629,4749
1572535755.4791663,106665,152636,4743
1572535755.487972,106674,152671,4710
1572535755.4960194,106683,152672,4757
1572535755.5042439,106682,152701,4740
1572535755.5123246,106697,152733,4722
1572535755.516542,106689,152643,4742
1572535755.524512,106634,152688,4757
1572535755.532744,106658,152714,4732
1572535755.5410662,106708,152718,4753
1572535755.5486417,106674,152712,4743
1572535755.557568,106618,152626,4794
1572535755.561593,106660,152642,4740
1572535755.5691235,106640,152592,4747
1572535755.5779169,106633,152573,4758
1572535755.5856855,106657,152519,4709
1572535755.5943403,106602,152437,4728
1572535755.6025662,106629,152329,4752
1572535755.606641,106580,152332,4735
1572535755.6144023,106554,152246,4726
1572535755.622519,106520,152252,4718
1572535755.6312153,106536,152199,4696
1572535755.6393867,106552,152199,4720
1572535755.6476157,106544,152140,4713
1572535755.6517217,106485,152112,4703
1572535755.6592293,106569,152180,4709
1572535755.6680343,106516,152191,4704
1572535755.676393,106547,152219,4715
1572535755.6839547,106555,152180,4676
1572535755.692012,106529,152278,4721
1572535755.7008367,106554,152226,4692
1572535755.7052677,106523,152283,4680
1572535755.7131078,106556,152320,4706
1572535755.7209518,106587,152293,4694
1572535755.7294824,106561,152344,4687
1572535755.7376807,106562,152342,4700
1572535755.745748,106537,152338,4702
1572535755.7500103,106582,152368,4710
1572535755.7578764,106548,152344,4736
1572535755.7674353,106572,152375,4722
1572535755.7745554,106585,152395,4724
1572535755.7828178,106601,152424,4715
1572535755.7910135,106591,152383,4716
1572535755.7950585,106563,152448,4726
1572535755.8073308,106596,152442,4683
1572535755.8114033,106593,152454,4734
1572535755.8195782,106615,152465,4714
1572535755.827034,106560,152386,4711
1572535755.8356946,106618,152452,4730
1572535755.840107,106605,152439,4709
1572535755.852363,106587,152370,4693
1572535755.8559573,106573,152315,4703
1572535755.8646517,106597,152402,4718
1572535755.8728824,106568,152370,4725
1572535755.880534,106550,152373,4713
1572535755.8851562,106548,152369,4730
1572535755.8974533,106578,152345,4724
1572535755.9015539,106571,152323,4744
1572535755.90945,106556,152345,4715
1572535755.9179292,106579,152313,4702
1572535755.9257667,106567,152371,4665
1572535755.9302306,106566,152360,4693
1572535755.9425654,106582,152343,4708
1572535755.946711,106566,152375,4661
1572535755.9547749,106599,152353,4720
1572535755.9630022,106509,152370,4707
1572535755.9711766,106583,152427,4704
1572535755.9748194,106589,152437,4721
1572535755.9871104,106595,152445,4747
1572535755.9916759,106550,152406,4756
1572535755.999852,106556,152480,4712
1572535756.0079584,106593,152477,4703
1572535756.0156097,106573,152521,4745
1572535756.0242314,106636,152492,4705
1572535756.0326245,106625,152514,4746
1572535756.036704,106613,152513,4725
1572535756.0448964,106639,152565,4724
1572535756.0530982,106643,152551,4723
1572535756.061299,106636,152593,4725
1572535756.0694468,106662,152575,4690
1572535756.077891,106630,152563,4699
1572535756.0819016,106640,152597,4719
1572535756.0899723,106673,152586,4731
1572535756.0981445,106596,152572,4717
1572535756.1063466,106600,152592,4756
1572535756.1145437,106686,152622,4707
1572535756.1227202,106637,152650,4717
1572535756.1268127,106673,152585,4738
1572535756.134963,106606,152600,4728
1572535756.1429808,106606,152666,4711
1572535756.1513946,106585,152626,4730
1572535756.1595664,106652,152552,4721
1572535756.1677935,106640,152625,4737
1572535756.1714098,106676,152605,4740
1572535756.179856,106593,152567,4739
1572535756.188163,106651,152662,4727
1572535756.1960363,106637,152661,4748
1572535756.2045958,106673,152588,4743
1572535756.2120924,106653,152658,4741
1572535756.2201407,106650,152602,4748
1572535756.2251256,106605,152585,4751
1572535756.2328527,106686,152700,4768
1572535756.241541,106634,152694,4734
1572535756.249662,106664,152686,4780
1572535756.25737,106653,152645,4763
1572535756.2660391,106658,152721,4797
1572535756.2701905,106672,152692,4764
1572535756.277999,106642,152733,4732
1572535756.2864804,106686,152665,4727
1572535756.2946515,106665,152668,4773
1572535756.3031416,106667,152669,4735
1572535756.3107736,106649,152591,4780
1572535756.3148751,106577,152551,4766
1572535756.3230743,106644,152498,4750
1572535756.331583,106551,152447,4750
1572535756.3399422,106596,152374,4773
1572535756.3480115,106513,152242,4761
1572535756.3560574,106555,152321,4738
1572535756.3598397,106513,152249,4705
1572535756.3684583,106534,152199,4750
1572535756.376505,106541,152194,4668
1572535756.3843193,106513,152176,4709
1572535756.3924482,106540,152179,4720
1572535756.401234,106526,152202,4703
1572535756.4055946,106534,152229,4706
1572535756.413756,106505,152229,4713
1572535756.4217339,106540,152199,4659
1572535756.4297326,106544,152258,4725
1572535756.4381084,106529,152256,4700
1572535756.4460852,106503,152235,4704
1572535756.45041,106565,152336,4727
1572535756.4585154,106533,152363,4707
1572535756.4665682,106549,152368,4727
1572535756.474958,106569,152332,4732
1572535756.4825587,106563,152361,4748
1572535756.4913604,106566,152352,4718
1572535756.4948354,106538,152420,4684
1572535756.5036335,106580,152401,4725
1572535756.5118527,106580,152406,4730
1572535756.519663,106555,152442,4727
1572535756.5277205,106553,152435,4722
1572535756.5364337,106564,152425,4724
1572535756.5405328,106556,152440,4751
1572535756.552203,106611,152451,4712
1572535756.5565896,106585,152436,4731
1572535756.5650806,106604,152392,4741
